350,828,0
345,1304,0
349,1828,0
355,2356,0
358,2876,0
360,3392,0
361,3904,0
356,4436,0
341,4952,0
319,5484,0
290,6212,0
264,7232,0
246,8252,0
221,9272,0
236,10292,0
284,11400,0
305,12504,0
309,13608,0
313,14712,0
338,15820,0
389,16924,0
386,18028,0
388,19132,0
369,20240,0
365,21344,0
364,22448,0
341,23560,0
315,24660,0
283,25764,0
248,26868,0
248,27972,0
241,29080,0
232,30184,0
257,31288,0
293,32392,0
330,33500,0
343,34604,0
361,35708,0
371,36812,0
373,37920,0
383,39024,0
382,40128,0
363,41232,0
360,42340,0
352,43444,0
337,44548,0
297,45652,0
264,46760,0
255,47864,0
236,48968,0
234,50072,0
256,51180,0
284,52284,0
314,53388,0
337,54492,0
372,55600,0
376,56704,0
376,57808,0
370,58912,0
367,60020,0
361,61124,0
360,62228,0
351,63332,0
330,64440,0
296,65548,0
277,66648,0
262,67752,0
241,68860,0
232,69964,0
244,71068,0
265,72172,0
309,73280,0
344,74384,0
373,75488,0
373,76592,0
376,77700,0
389,78804,0
382,79908,0
366,81012,0
354,82120,0
345,83224,0
324,84328,0
296,85432,0
274,86540,0
273,87644,0
239,88748,0
226,89852,0
242,90960,0
277,92064,0
313,93168,0
333,94272,0
360,95380,0
374,96484,0
378,97588,0
388,98692,0
383,99800,0
362,100904,0
361,102092,0
358,103284,0
324,104472,0
287,105664,0
278,106852,0
274,108044,0
223,109232,0
209,110424,0
230,111612,0
292,112804,0
349,113992,0
392,115184,0
391,116372,0
394,117564,0
384,118752,0
367,119944,0
353,121132,0
356,122324,0
343,123512,0
329,124704,0
297,125892,0
257,127084,0
222,128272,0
206,129464,0
256,130652,0
272,131844,0
310,133032,0
328,134224,0
356,135412,0
366,136604,0
385,137792,0
392,138984,0
384,140172,0
363,141364,0
351,142552,0
335,143744,0
327,144932,0
305,146124,0
283,147312,0
240,148504,0
217,149692,0
234,150884,0
274,152072,0
304,153264,0
321,154452,0
345,155644,0
379,156832,0
390,158024,0
408,159212,0
390,160404,0
359,161592,0
351,162784,0
339,163972,0
310,165164,0
271,166352,0
253,167544,0
232,168732,0
226,169924,0
250,171112,0
274,172304,0
312,173492,0
341,174684,0
371,175872,0
380,177064,0
387,178252,0
395,179444,0
379,180632,0
364,181824,0
352,183012,0
338,184204,0
304,185392,0
270,186584,0
254,187772,0
224,188964,0
227,190152,0
253,191344,0
286,192532,0
320,193724,0
347,194912,0
373,196104,0
378,197292,0
386,198484,0
382,199672,0
369,200864,0
362,202052,0
353,203244,0
333,204432,0
293,205624,0
275,206812,0
270,208004,0
223,209192,0
220,210384,0
256,211572,0
297,212764,0
312,213952,0
343,215144,0
383,216332,0
393,217524,0
383,218712,0
375,219904,0
378,221092,0
374,222284,0
350,223472,0
311,224664,0
284,225852,0
259,227044,0
277,228232,0
237,229424,0
222,230612,0
248,231804,0
313,232992,0
338,234184,0
359,235372,0
364,236564,0
370,237752,0
388,238944,0
388,240132,0
377,241324,0
362,242512,0
346,243704,0
326,244892,0
276,246084,0
250,247272,0
233,248464,0
237,249652,0
254,250844,0
273,252032,0
298,253224,0
325,254412,0
362,255604,0
379,256792,0
373,257984,0
385,259172,0
383,260364,0
377,261552,0
363,262744,0
338,263932,0
310,265124,0
271,266312,0
259,267504,0
236,268692,0
235,269884,0
244,271072,0
267,272264,0
299,273452,0
328,274644,0
365,275832,0
380,277024,0
385,278212,0
394,279404,0
391,280592,0
370,281784,0
357,282972,0
333,284164,0
302,285352,0
280,286544,0
268,287732,0
228,288924,0
218,290112,0
243,291304,0
281,292492,0
322,293684,0
346,294872,0
369,296064,0
373,297252,0
379,298444,0
392,299632,0
381,300824,0
377,302012,0
362,303204,0
328,304392,0
284,305584,0
263,306772,0
268,307964,0
232,309152,0
214,310344,0
236,311532,0
298,312724,0
338,313912,0
345,315104,0
355,316292,0
371,317484,0
399,318672,0
398,319864,0
384,321052,0
379,322244,0
362,323432,0
330,324624,0
287,325812,0
271,327004,0
253,328192,0
206,329384,0
197,330572,0
228,331764,0
289,332952,0
329,334144,0
363,335332,0
385,336524,0
391,337712,0
406,338904,0
404,340092,0
387,341284,0
372,342472,0
353,343664,0
318,344852,0
277,346044,0
258,347232,0
229,348424,0
209,349612,0
225,350804,0
248,351992,0
296,353184,0
335,354372,0
367,355564,0
369,356752,0
384,357944,0
414,359132,0
412,360324,0
388,361512,0
370,362704,0
347,363892,0
310,365084,0
267,366272,0
253,367464,0
223,368656,0
203,369844,0
221,371032,0
249,372224,0
309,373412,0
361,374604,0
387,375792,0
385,376984,0
385,378172,0
386,379364,0
380,380552,0
364,381744,0
369,382932,0
344,384124,0
307,385312,0
263,386504,0
249,387692,0
214,388884,0
214,390072,0
233,391264,0
272,392452,0
310,393644,0
339,394832,0
373,396024,0
394,397212,0
409,398404,0
402,399592,0
383,400784,0
388,401972,0
373,403164,0
335,404352,0
292,405544,0
255,406732,0
242,407924,0
206,409112,0
211,410304,0
240,411492,0
281,412688,0
316,413872,0
356,415064,0
386,416252,0
390,417444,0
399,418632,0
399,419824,0
382,421012,0
383,422204,0
365,423392,0
328,424584,0
272,425772,0
240,426964,0
235,428152,0
210,429344,0
222,430532,0
243,431724,0
286,432912,0
324,434104,0
358,435292,0
387,436484,0
404,437672,0
416,438864,0
407,440052,0
373,441244,0
369,442432,0
355,443624,0
330,444812,0
271,446004,0
252,447192,0
242,448384,0
219,449572,0
227,450764,0
231,451952,0
279,453144,0
316,454332,0
365,455524,0
392,456720,0
395,457904,0
402,459092,0
400,460284,0
381,461472,0
383,462664,0
364,463852,0
322,465044,0
266,466232,0
226,467424,0
210,468612,0
217,469804,0
245,470992,0
259,472184,0
289,473372,0
320,474564,0
377,475752,0
398,476944,0
381,478132,0
396,479324,0
405,480512,0
390,481704,0
369,482892,0
340,484084,0
312,485272,0
266,486464,0
243,487652,0
209,488844,0
200,490032,0
226,491224,0
287,492412,0
308,493604,0
341,494792,0
373,495984,0
392,497172,0
394,498364,0
401,499552,0
395,500748,0
373,501932,0
360,503124,0
350,504312,0
310,505504,0
253,506692,0
242,507884,0
213,509072,0
217,510264,0
238,511452,0
273,512644,0
311,513832,0
349,515024,0
378,516212,0
398,517404,0
404,518592,0
403,519784,0
395,520972,0
389,522164,0
357,523352,0
325,524544,0
294,525732,0
250,526924,0
233,528112,0
192,529304,0
209,530492,0
243,531684,0
284,532872,0
324,534064,0
359,535252,0
386,536444,0
394,537632,0
407,538824,0
405,540012,0
386,541204,0
379,542392,0
357,543584,0
322,544780,0
272,545964,0
249,547152,0
234,548344,0
196,549532,0
217,550724,0
262,551912,0
310,553104,0
331,554292,0
356,555484,0
390,556672,0
399,557864,0
398,559052,0
391,560244,0
370,561432,0
370,562624,0
364,563812,0
322,565004,0
268,566192,0
234,567384,0
204,568572,0
200,569764,0
231,570952,0
272,572144,0
299,573332,0
334,574524,0
374,575712,0
399,576904,0
408,578092,0
410,579284,0
391,580472,0
374,581664,0
377,582852,0
350,584044,0
308,585232,0
247,586424,0
243,587612,0
211,588808,0
210,589992,0
234,591184,0
267,592372,0
302,593564,0
338,594752,0
376,595944,0
387,597132,0
396,598324,0
424,599512,0
402,600704,0
368,601892,0
366,603084,0
342,604272,0
299,605464,0
261,606652,0
235,607844,0
207,609032,0
200,610224,0
233,611412,0
277,612604,0
311,613792,0
352,614984,0
381,616172,0
408,617364,0
404,618552,0
404,619744,0
386,620932,0
381,622124,0
384,623312,0
339,624504,0
282,625692,0
239,626884,0
238,628072,0
203,629264,0
200,630452,0
236,631644,0
280,632840,0
321,634024,0
362,635212,0
390,636404,0
398,637592,0
405,638784,0
397,639972,0
371,641164,0
373,642352,0
367,643544,0
342,644732,0
286,645924,0
254,647112,0
231,648304,0
198,649492,0
209,650684,0
248,651872,0
308,653064,0
335,654252,0
363,655444,0
377,656632,0
388,657824,0
412,659012,0
390,660204,0
376,661392,0
380,662584,0
361,663772,0
329,664964,0
261,666152,0
245,667344,0
214,668532,0
195,669724,0
202,670912,0
241,672104,0
312,673292,0
359,674484,0
402,675672,0
400,676868,0
391,678052,0
399,679244,0
395,680432,0
379,681624,0
371,682812,0
345,684004,0
315,685192,0
271,686384,0
238,687572,0
198,688764,0
185,689952,0
226,691144,0
256,692332,0
304,693524,0
341,694712,0
390,695904,0
407,697092,0
424,698284,0
423,699472,0
397,700664,0
366,701852,0
360,703044,0
318,704232,0
286,705424,0
253,706612,0
242,707804,0
215,708992,0
208,710184,0
233,711372,0
263,712564,0
318,713752,0
358,714944,0
380,716132,0
381,717324,0
388,718512,0
417,719704,0
421,720892,0
402,722084,0
379,723272,0
321,724464,0
275,725652,0
241,726844,0
236,728032,0
197,729224,0
201,730412,0
241,731604,0
292,732792,0
327,733984,0
352,735172,0
385,736364,0
399,737552,0
407,738744,0
398,739932,0
380,741124,0
377,742312,0
372,743504,0
335,744692,0
276,745884,0
245,747072,0
233,748264,0
198,749452,0
215,750644,0
250,751832,0
298,753024,0
320,754212,0
361,755404,0
388,756592,0
400,757784,0
415,758972,0
408,760164,0
390,761352,0
374,762544,0
339,763732,0
298,764924,0
265,766112,0
242,767304,0
232,768492,0
198,769684,0
209,770872,0
243,772064,0
328,773252,0
359,774444,0
370,775632,0
402,776824,0
410,778012,0
408,779204,0
380,780392,0
359,781584,0
359,782772,0
336,783964,0
293,785152,0
262,786344,0
273,787532,0
236,788724,0
213,789912,0
210,791104,0
259,792292,0
311,793484,0
352,794672,0
383,795864,0
386,797052,0
387,798244,0
402,799432,0
405,800624,0
381,801812,0
359,803004,0
327,804192,0
290,805384,0
258,806572,0
261,807764,0
216,808952,0
213,810144,0
219,811332,0
256,812524,0
299,813712,0
338,814904,0
406,816092,0
404,817284,0
416,818472,0
408,819664,0
423,820852,0
385,822044,0
335,823232,0
308,824424,0
297,825612,0
267,826804,0
240,827992,0
184,829184,0
181,830372,0
216,831564,0
300,832752,0
326,833944,0
407,835132,0
418,836324,0
405,837512,0
352,838704,0
374,839892,0
393,841084,0
383,842272,0
332,843464,0
303,844652,0
277,845844,0
277,847032,0
247,848224,0
201,849412,0
225,850604,0
260,851792,0
302,852984,0
319,854172,0
352,855364,0
370,856552,0
416,857744,0
439,858932,0
420,860124,0
361,861312,0
359,862504,0
353,863692,0
342,864884,0
284,866072,0
219,867264,1
203,868452,1
181,869644,1
173,870832,1
224,872024,1
314,873212,1
421,874404,1
424,875592,1
375,876784,1
349,877972,1
400,879164,1
427,880352,1
400,881544,1
357,882732,1
346,883924,1
280,885112,1
221,886304,1
234,887492,1
227,888684,1
230,889872,1
235,891064,1
255,892252,1
278,893444,1
321,894632,1
360,895824,1
419,897012,1
462,898204,1
470,899392,1
394,900584,1
351,901772,1
361,902964,1
335,904152,1
298,905344,1
277,906532,1
250,907724,1
184,908912,1
193,910104,1
211,911292,1
270,912484,1
335,913672,1
355,914864,1
381,916052,1
401,917244,1
419,918432,1
387,919624,1
362,920812,1
369,922004,1
370,923192,1
355,924384,1
265,925572,1
222,926764,1
194,927952,1
215,929144,1
244,930332,1
281,931524,1
288,932712,1
336,933904,1
368,935092,1
349,936284,1
365,937472,1
377,938664,1
408,939852,1
394,941044,1
389,942232,1
369,943424,1
379,944612,1
307,945804,1
265,946992,1
232,948184,1
164,949372,1
184,950564,1
257,951752,1
338,952944,1
297,954132,1
355,955324,1
336,956512,1
392,957704,1
420,958892,1
437,960084,1
407,961272,1
342,962464,1
306,963652,1
322,964844,1
283,966032,1
251,967224,1
224,968412,1
193,969604,1
231,970792,1
303,971984,1
331,973172,1
356,974364,1
339,975552,1
335,976744,1
324,977936,1
403,979124,1
425,980312,1
370,981504,1
367,982692,1
394,983884,1
349,985072,1
272,986264,1
252,987452,1
232,988644,1
151,989832,1
221,991024,1
281,992212,1
343,993404,1
307,994592,1
449,995784,1
434,996972,1
330,998164,1
406,999352,1
425,1000544,1
356,1001820,1
285,1003092,1
330,1004368,1
285,1005644,1
249,1006920,1
238,1008192,1
218,1009468,1
233,1010744,1
266,1012020,1
317,1013292,1
348,1014568,1
383,1015844,1
395,1017120,1
398,1018392,1
382,1019668,1
364,1020944,1
374,1022220,1
375,1023492,1
327,1024768,1
253,1026044,1
252,1027320,1
239,1028592,1
218,1029868,1
238,1031144,1
264,1032420,1
318,1033692,1
335,1034968,1
382,1036244,1
419,1037520,1
432,1038792,1
403,1040068,1
354,1041344,1
357,1042620,1
357,1043892,1
324,1045168,1
224,1046444,1
223,1047720,1
238,1048992,1
269,1050268,1
256,1051544,1
269,1052820,1
293,1054092,1
365,1055368,1
399,1056644,1
398,1057920,1
409,1059192,1
383,1060468,1
359,1061744,1
357,1063020,1
332,1064292,1
298,1065568,1
261,1066844,1
238,1068120,1
204,1069392,1
220,1070668,1
290,1071944,1
347,1073220,1
357,1074492,1
354,1075768,1
384,1077044,1
379,1078320,1
378,1079592,1
364,1080868,1
360,1082144,1
361,1083420,1
339,1084692,1
281,1085968,1
250,1087244,1
239,1088524,1
211,1089792,1
223,1091068,1
275,1092344,1
330,1093620,1
362,1094892,1
384,1096168,1
393,1097444,1
411,1098720,1
400,1099992,1
354,1101268,1
346,1102544,1
377,1103820,1
326,1105092,1
249,1106368,1
234,1107644,1
201,1108920,1
208,1110192,1
243,1111468,1
304,1112744,1
343,1114020,1
370,1115292,1
401,1116568,1
401,1117844,1
386,1119120,1
370,1120392,1
359,1121668,1
372,1122944,1
328,1124220,1
292,1125492,1
267,1126768,1
241,1128044,1
210,1129320,1
210,1130592,1
268,1131868,1
322,1133144,1
350,1134420,1
386,1135692,1
384,1136968,1
396,1138244,1
393,1139520,1
365,1140792,1
341,1142068,1
365,1143344,1
358,1144620,1
276,1145892,1
217,1147168,1
239,1148444,1
224,1149720,1
234,1150992,1
247,1152268,1
334,1153544,1
363,1154820,1
394,1156092,1
387,1157368,1
397,1158644,1
388,1159920,1
373,1161192,1
359,1162468,1
344,1163744,1
308,1165020,1
262,1166292,1
255,1167568,1
230,1168844,1
241,1170120,1
260,1171392,1
269,1172668,1
306,1173944,1
355,1175220,1
381,1176492,1
383,1177768,1
388,1179044,1
387,1180320,1
374,1181592,1
366,1182868,1
340,1184144,1
300,1185420,1
262,1186692,1
251,1187968,1
217,1189244,1
223,1190520,1
250,1191792,1
294,1193068,1
330,1194344,1
363,1195620,1
400,1196892,1
413,1198168,1
411,1199444,1
387,1200720,1
374,1201992,1
351,1203268,1
326,1204544,1
281,1205820,1
249,1207092,1
225,1208368,1
201,1209644,1
231,1210920,1
274,1212192,1
317,1213468,1
334,1214744,1
383,1216020,1
401,1217292,1
415,1218576,1
387,1219844,1
364,1221120,1
363,1222392,1
347,1223668,1
313,1224944,1
260,1226220,1
242,1227492,1
227,1228768,1
228,1230044,1
267,1231320,0
277,1232592,0
323,1233868,0
348,1235144,0
373,1236420,0
369,1237692,0
407,1238968,0
405,1240244,0
377,1241520,0
349,1242792,0
345,1244068,0
298,1245344,0
258,1246620,0
236,1247892,0
202,1249168,0
219,1250444,0
252,1251720,0
302,1252992,0
327,1254268,0
366,1255544,0
394,1256820,0
394,1258092,0
393,1259368,0
391,1260644,0
421,1261920,0
370,1263192,0
325,1264468,0
284,1265744,0
261,1267020,0
235,1268292,0
200,1269568,0
202,1270844,0
250,1272120,0
303,1273392,0
340,1274668,0
380,1275944,0
402,1277220,0
405,1278492,0
397,1279768,0
373,1281044,0
371,1282320,0
355,1283592,0
321,1284868,0
270,1286148,0
248,1287420,0
225,1288692,0
223,1289968,0
235,1291244,0
258,1292520,0
307,1293792,0
373,1295068,0
393,1296344,0
376,1297620,0
401,1298892,0
393,1300168,0
378,1301444,0
369,1302720,0
348,1303992,0
311,1305268,0
259,1306544,0
242,1307820,0
196,1309092,0
205,1310368,0
253,1311644,0
307,1312920,0
333,1314192,0
370,1315468,0
389,1316744,0
394,1318020,0
407,1319292,0
393,1320568,0
372,1321844,0
363,1323120,0
341,1324392,0
287,1325668,0
240,1326944,0
217,1328220,0
197,1329492,0
229,1330768,0
274,1332044,0
303,1333320,0
336,1334592,0
403,1335868,0
426,1337144,0
404,1338420,0
381,1339692,0
363,1340968,0
372,1342244,0
356,1343520,0
325,1344792,0
275,1346068,0
240,1347344,0
193,1348624,0
203,1349892,0
239,1351168,0
291,1352444,0
321,1353720,0
352,1354992,0
386,1356268,0
390,1357544,0
403,1358820,0
400,1360092,0
377,1361368,0
373,1362644,0
350,1363920,0
307,1365192,0
249,1366468,0
223,1367744,0
200,1369020,0
237,1370292,0
275,1371568,0
311,1372844,0
327,1374120,0
348,1375392,0
362,1376668,0
389,1377944,0
408,1379220,0
400,1380492,0
382,1381768,0
362,1383044,0
327,1384320,0
293,1385592,0
260,1386868,0
227,1388144,0
204,1389420,0
225,1390692,0
253,1391968,0
299,1393244,0
345,1394520,0
381,1395792,0
387,1397068,0
396,1398344,0
403,1399620,0
391,1400892,0
369,1402168,0
360,1403444,0
343,1404720,0
282,1405992,0
240,1407268,0
205,1408544,0
207,1409820,0
226,1411092,0
263,1412368,0
313,1413644,0
349,1414920,0
387,1416200,0
391,1417468,0
404,1418744,0
400,1420020,0
383,1421292,0
373,1422568,0
351,1423844,0
309,1425120,0
262,1426392,0
245,1427668,0
211,1428944,0
201,1430220,0
231,1431492,0
272,1432768,0
337,1434044,0
379,1435320,0
400,1436592,0
394,1437868,0
404,1439144,0
392,1440420,0
376,1441692,0
369,1442968,0
333,1444244,0
286,1445520,0
254,1446792,0
251,1448068,0
206,1449344,0
210,1450620,0
257,1451892,0
285,1453168,0
306,1454444,0
360,1455720,0
419,1456992,0
425,1458268,0
446,1459544,0
415,1460820,0
364,1462092,0
317,1463368,0
317,1464644,0
264,1465920,0
227,1467192,0
227,1468468,0
226,1469744,0
234,1471020,0
255,1472292,0
311,1473568,0
347,1474844,0
372,1476120,0
383,1477392,0
417,1478672,0
428,1479944,0
388,1481220,0
374,1482492,0
347,1483768,0
316,1485044,0
265,1486320,0
243,1487592,0
208,1488868,0
202,1490144,0
238,1491420,0
279,1492692,0
327,1493968,0
361,1495244,0
385,1496520,0
388,1497792,0
404,1499068,0
404,1500344,0
383,1501620,0
365,1502892,0
336,1504168,0
293,1505444,0
258,1506720,0
247,1507992,0
207,1509268,0
214,1510544,0
250,1511820,0
301,1513092,0
331,1514368,0
376,1515644,0
388,1516920,0
387,1518192,0
382,1519468,0
389,1520744,0
382,1522020,0
382,1523292,0
330,1524568,0
272,1525844,0
273,1527120,0
269,1528392,0
204,1529668,0
182,1530944,0
236,1532220,0
315,1533492,0
356,1534768,0
381,1536044,0
374,1537320,0
396,1538592,0
398,1539868,0
377,1541144,0
391,1542420,0
384,1543692,0
335,1544968,0
256,1546248,0
194,1547520,0
182,1548792,0
211,1550068,0
272,1551344,0
303,1552620,0
305,1553892,0
339,1555168,0
383,1556444,0
422,1557720,0
414,1558992,0
419,1560268,0
388,1561544,0
388,1562820,0
321,1564092,0
302,1565368,0
293,1566644,0
262,1567920,0
133,1569192,0
138,1570468,0
229,1571744,0
294,1573020,0
383,1574292,0
405,1575568,0
388,1576844,0
310,1578120,0
394,1579392,0
449,1580668,0
414,1581944,0
372,1583220,1
394,1584492,1
309,1585768,1
247,1587044,1
197,1588320,1
177,1589592,1
197,1590868,1
245,1592144,1
280,1593420,1
347,1594692,1
396,1595968,1
415,1597244,1
405,1598520,1
324,1599792,1
336,1601068,1
487,1602344,1
459,1603620,1
338,1604892,1
199,1606168,1
245,1607444,1
281,1608720,1
241,1609992,1
208,1611268,1
188,1612544,1
277,1613820,1
319,1615092,1
391,1616368,1
378,1617644,1
392,1618920,1
391,1620192,1
412,1621468,1
377,1622744,1
347,1624020,1
295,1625292,1
240,1626568,1
232,1627844,1
221,1629120,1
247,1630392,1
300,1631668,1
308,1632944,1
315,1634220,1
358,1635492,1
380,1636768,1
312,1638044,1
363,1639320,1
460,1640592,1
433,1641868,1
402,1643144,1
323,1644420,1
342,1645692,1
224,1646968,1
205,1648244,1
168,1649520,1
217,1650792,1
259,1652068,1
314,1653344,1
375,1654620,1
386,1655892,1
364,1657168,1
385,1658444,1
338,1659720,1
302,1660992,1
347,1662268,1
417,1663544,1
458,1664820,1
342,1666092,1
234,1667368,1
164,1668644,1
235,1669920,1
204,1671192,1
291,1672468,1
344,1673744,1
315,1675020,1
342,1676300,1
371,1677568,1
411,1678844,1
388,1680120,1
357,1681392,1
340,1682668,1
344,1683944,1
319,1685220,1
250,1686492,1
202,1687768,1
270,1689044,1
286,1690320,1
273,1691592,1
287,1692868,1
362,1694144,1
388,1695420,1
338,1696692,1
392,1697968,1
421,1699244,1
386,1700520,1
364,1701792,1
285,1703068,1
268,1704344,1
310,1705620,1
342,1706892,1
273,1708168,1
167,1709444,1
179,1710720,1
267,1711992,1
372,1713268,1
400,1714544,1
431,1715820,1
367,1717092,1
372,1718368,1
328,1719644,1
353,1720920,1
342,1722192,1
349,1723468,1
325,1724744,1
283,1726020,1
256,1727292,1
238,1728568,1
227,1729844,1
262,1731120,1
299,1732392,1
289,1733668,1
279,1734944,1
367,1736220,1
461,1737492,1
460,1738768,1
395,1740044,1
384,1741320,1
341,1742592,1
325,1743868,1
305,1745144,1
266,1746420,1
246,1747692,1
215,1748968,1
225,1750244,1
260,1751520,1
303,1752792,1
323,1754068,1
376,1755344,1
347,1756620,1
368,1757892,1
415,1759168,1
427,1760444,1
378,1761720,1
339,1762992,1
316,1764268,1
286,1765544,1
244,1766820,1
249,1768092,1
227,1769368,1
235,1770644,1
261,1771920,1
302,1773192,1
345,1774468,1
379,1775744,1
390,1777020,1
397,1778292,1
406,1779568,1
384,1780844,1
353,1782120,1
343,1783392,1
328,1784668,1
265,1785944,1
248,1787220,1
229,1788492,1
221,1789768,1
235,1791044,1
274,1792320,1
322,1793592,1
358,1794868,1
387,1796144,1
400,1797420,1
392,1798692,1
378,1799968,1
387,1801244,1
385,1802520,1
337,1803792,1
304,1805068,1
254,1806348,1
233,1807620,1
216,1808892,1
215,1810168,1
251,1811444,1
303,1812720,1
348,1813992,1
360,1815268,1
382,1816544,1
378,1817820,1
400,1819092,1
389,1820368,1
369,1821644,1
362,1822920,1
343,1824192,1
283,1825468,1
250,1826744,1
244,1828020,1
214,1829292,1
227,1830568,1
275,1831844,1
309,1833120,1
334,1834392,1
380,1835668,1
381,1836944,1
387,1838220,1
392,1839492,1
378,1840768,1
364,1842044,1
363,1843320,1
338,1844592,1
281,1845868,1
253,1847144,1
239,1848420,1
216,1849692,1
233,1850968,1
271,1852244,1
320,1853520,1
349,1854792,1
368,1856068,1
390,1857344,1
409,1858620,1
408,1859892,1
374,1861168,1
349,1862444,1
325,1863720,1
304,1864992,1
267,1866268,1
258,1867544,1
232,1868820,1
225,1870092,1
244,1871368,1
300,1872644,1
329,1873920,1
351,1875192,1
361,1876468,1
384,1877744,1
403,1879020,1
393,1880292,1
369,1881568,1
365,1882844,1
342,1884120,1
279,1885392,1
258,1886668,1
249,1887944,1
245,1889220,1
228,1890492,1
256,1891768,1
276,1893044,1
331,1894320,1
371,1895592,1
397,1896868,1
383,1898144,1
399,1899420,1
384,1900692,1
365,1901968,1
358,1903244,1
330,1904520,1
283,1905792,1
256,1907068,1
236,1908344,1
214,1909620,1
234,1910892,1
271,1912168,1
324,1913444,1
353,1914720,1
377,1915992,1
363,1917268,1
386,1918544,1
419,1919820,1
397,1921092,1
365,1922368,1
325,1923644,1
307,1924920,1
273,1926192,1
251,1927468,1
221,1928744,1
219,1930020,1
245,1931292,1
276,1932568,1
334,1933844,1
385,1935120,1
398,1936400,1
380,1937668,1
379,1938944,1
386,1940220,1
369,1941492,1
364,1942768,1
343,1944044,1
297,1945320,1
252,1946592,1
243,1947868,1
222,1949144,1
234,1950420,1
273,1951692,1
289,1952968,1
325,1954244,1
355,1955520,1
393,1956792,1
388,1958068,1
395,1959344,1
381,1960620,1
368,1961892,1
356,1963168,1
329,1964444,1
287,1965720,1
260,1966992,1
235,1968268,1
211,1969544,0
236,1970820,0
278,1972092,0
311,1973368,0
342,1974644,0
385,1975920,0
380,1977192,0
385,1978468,0
388,1979744,0
377,1981020,0
367,1982292,0
353,1983568,0
316,1984844,0
266,1986120,0
256,1987392,0
226,1988668,0
226,1989944,0
256,1991220,0
298,1992492,0
335,1993768,0
355,1995044,0
352,1996320,0
362,1997592,0
373,1998868,0
393,2000144,0
375,2001420,0
360,2002692,0
329,2003976,0
296,2005244,0
270,2006520,0
276,2007792,0
221,2009068,0
213,2010344,0
246,2011620,0
310,2012892,0
345,2014168,0
370,2015444,0
377,2016720,0
381,2017992,0
395,2019268,0
418,2020544,0
379,2021820,0
336,2023092,0
280,2024368,0
295,2025644,0
265,2026920,0
256,2028192,0
217,2029468,0
240,2030744,0
263,2032020,0
305,2033292,0
328,2034568,0
362,2035844,0
378,2037120,0
404,2038392,0
418,2039668,0
383,2040944,0
357,2042220,0
345,2043492,0
329,2044768,0
290,2046044,0
255,2047320,0
228,2048592,0
201,2049868,0
241,2051144,0
277,2052420,0
320,2053692,0
352,2054968,0
382,2056244,0
385,2057520,0
394,2058792,0
400,2060068,0
365,2061344,0
364,2062620,0
340,2063892,0
304,2065168,0
251,2066448,0
243,2067720,0
221,2068992,0
235,2070268,0
263,2071544,0
303,2072820,0
333,2074092,0
355,2075368,0
370,2076644,0
391,2077920,0
399,2079192,0
385,2080468,0
358,2081744,0
359,2083020,0
335,2084292,0
298,2085568,0
261,2086844,0
248,2088120,0
210,2089392,0
223,2090668,0
259,2091944,0
339,2093220,0
363,2094492,0
377,2095768,0
356,2097044,0
377,2098320,0
390,2099592,0
372,2100868,0
362,2102144,0
357,2103420,0
332,2104692,0
272,2105968,0
244,2107244,0
235,2108520,0
240,2109792,0
254,2111068,0
277,2112344,0
304,2113620,0
353,2114892,0
379,2116168,0
384,2117444,0
393,2118720,0
390,2119992,0
370,2121268,0
361,2122544,0
348,2123820,0
310,2125092,0
265,2126368,0
242,2127644,0
213,2128920,0
210,2130192,0
252,2131468,0
291,2132744,0
343,2134024,0
369,2135292,0
397,2136568,0
372,2137844,0
393,2139120,0
397,2140392,0
386,2141668,0
353,2142944,0
341,2144220,0
293,2145492,0
253,2146768,0
239,2148044,0
208,2149320,0
224,2150592,0
259,2151868,0
305,2153144,0
338,2154420,0
371,2155692,0
408,2156968,0
419,2158244,0
390,2159520,0
344,2160792,0
355,2162068,0
345,2163344,0
328,2164620,0
287,2165892,0
269,2167168,0
254,2168444,0
220,2169720,0
225,2170992,0
261,2172268,0
300,2173544,0
334,2174820,0
357,2176092,0
364,2177368,0
369,2178644,0
367,2179920,0
351,2181192,0
345,2182468,0
324,2183744,0
297,2185020,0
262,2186292,0
245,2187568,0
223,2188844,0
228,2190120,0
267,2191392,0
305,2192668,0
329,2193944,0
359,2195220,0
384,2196496,0
395,2197768,0
405,2199044,0
382,2200320,0
364,2201592,0
353,2202868,0
332,2204144,0
312,2205420,0
272,2206692,0
252,2207968,0
226,2209244,0
231,2210520,0
280,2211792,0
335,2213068,0
366,2214344,0
361,2215620,0
367,2216892,0
382,2218168,0
388,2219444,0
374,2220720,0
369,2221992,0
350,2223268,0
316,2224544,0
280,2225820,0
265,2227092,0
255,2228368,0
229,2229644,0
243,2230920,0
268,2232192,0
318,2233468,0
359,2234744,0
396,2236020,0
381,2237292,0
378,2238568,0
376,2239844,0
361,2241120,0
360,2242392,0
357,2243668,0
305,2244944,0
271,2246220,0
266,2247492,0
241,2248768,0
233,2250044,0
244,2251320,0
295,2252592,0
337,2253868,0
363,2255144,0
383,2256420,0
381,2257692,0
390,2258968,0
381,2260244,0
350,2261520,0
345,2262792,0
333,2264076,0
310,2265344,0
267,2266620,0
256,2267892,0
225,2269168,0
237,2270444,0
269,2271720,0
308,2272992,0
337,2274268,0
361,2275544,0
381,2276820,0
395,2278092,0
393,2279368,0
369,2280644,0
352,2281920,0
353,2283192,0
336,2284468,0
292,2285744,0
260,2287020,0
251,2288292,0
226,2289568,0
230,2290844,0
261,2292120,0
332,2293392,0
360,2294668,0
377,2295944,0
368,2297220,0
381,2298492,0
384,2299768,0
374,2301044,0
367,2302320,0
344,2303592,0
308,2304868,0
277,2306144,0
243,2307420,0
220,2308692,0
230,2309968,0
280,2311244,0
298,2312520,0
329,2313792,0
352,2315068,0
377,2316344,0
370,2317620,0
383,2318892,0
376,2320168,0
374,2321444,0
368,2322720,0
320,2323992,0
266,2325268,0
255,2326544,0
232,2327820,0
214,2329092,0
250,2330368,0
270,2331644,0
313,2332920,0
349,2334192,0
384,2335468,0
380,2336744,0
378,2338020,0
387,2339292,0
352,2340568,0
324,2341844,0
315,2343120,0
337,2344392,0
311,2345668,0
280,2346944,0
211,2348220,0
214,2349492,0
246,2350768,0
284,2352044,0
325,2353320,0
359,2354592,0
421,2355868,0
401,2357144,0
350,2358420,0
335,2359692,0
383,2360968,0
379,2362244,0
348,2363520,0
282,2364792,0
242,2366068,0
252,2367344,0
297,2368620,0
267,2369892,0
232,2371168,0
286,2372444,0
370,2373720,0
407,2374992,0
314,2376268,0
328,2377544,0
381,2378820,0
420,2380092,0
338,2381368,0
321,2382644,0
300,2383920,0
309,2385192,0
289,2386468,1
252,2387744,1
223,2389020,1
245,2390292,1
315,2391568,1
342,2392844,1
389,2394124,1
373,2395392,1
361,2396668,1
401,2397944,1
481,2399220,1
485,2400492,1
387,2401768,1
350,2403044,1
336,2404320,1
289,2405592,1
256,2406868,1
261,2408144,1
259,2409420,1
289,2410692,1
271,2411968,1
266,2413244,1
287,2414520,1
350,2415792,1
413,2417068,1
390,2418344,1
384,2419620,1
357,2420892,1
311,2422168,1
319,2423444,1
322,2424720,1
274,2425992,1
227,2427268,1
183,2428544,1
220,2429820,1
235,2431092,1
302,2432368,1
309,2433644,1
340,2434920,1
399,2436192,1
415,2437468,1
430,2438744,1
404,2440020,1
338,2441292,1
320,2442568,1
331,2443844,1
287,2445120,1
256,2446392,1
261,2447668,1
230,2448944,1
212,2450220,1
257,2451492,1
304,2452768,1
333,2454044,1
325,2455320,1
383,2456592,1
387,2457868,1
392,2459144,1
369,2460420,1
341,2461692,1
348,2462968,1
290,2464244,1
369,2465520,1
342,2466792,1
225,2468068,1
149,2469344,1
258,2470620,1
248,2471892,1
209,2473168,1
392,2474444,1
478,2475720,1
388,2476992,1
331,2478268,1
383,2479544,1
382,2480820,1
339,2482092,1
338,2483368,1
321,2484644,1
258,2485920,1
249,2487192,1
255,2488468,1
261,2489744,1
252,2491020,1
246,2492292,1
272,2493568,1
331,2494844,1
401,2496120,1
348,2497392,1
411,2498668,1
508,2499944,1
375,2501220,1
302,2502492,1
332,2503768,1
367,2505044,1
298,2506320,1
196,2507592,1
175,2508868,1
237,2510144,1
266,2511420,1
283,2512692,1
341,2513968,1
330,2515244,1
331,2516520,1
387,2517792,1
389,2519068,1
395,2520344,1
378,2521620,1
409,2522892,1
381,2524176,1
305,2525444,1
241,2526720,1
220,2527992,1
181,2529268,1
190,2530544,1
288,2531820,1
361,2533092,1
299,2534368,1
348,2535644,1
437,2536920,1
468,2538192,1
374,2539468,1
351,2540744,1
339,2542020,1
304,2543292,1
313,2544568,1
285,2545844,1
274,2547120,1
236,2548392,1
213,2549668,1
235,2550944,1
246,2552220,1
277,2553492,1
373,2554768,1
446,2556044,1
426,2557320,1
390,2558592,1
377,2559868,1
388,2561144,1
326,2562420,1
321,2563692,1
313,2564968,1
282,2566244,1
244,2567520,1
253,2568792,1
222,2570068,1
174,2571344,1
189,2572620,1
275,2573892,1
454,2575168,1
607,2576444,1
432,2577720,1
320,2578992,1
343,2580268,1
347,2581544,1
390,2582820,1
367,2584092,1
272,2585368,1
192,2586644,1
258,2587920,1
222,2589192,1
222,2590468,1
243,2591748,1
317,2593020,1
379,2594292,1
370,2595568,1
366,2596844,1
387,2598120,1
396,2599392,1
368,2600668,1
347,2601944,1
338,2603220,1
326,2604492,1
308,2605768,1
268,2607044,1
261,2608320,1
235,2609592,1
221,2610868,1
263,2612144,1
286,2613420,1
300,2614692,1
416,2615968,1
444,2617244,1
404,2618520,1
367,2619792,1
332,2621068,1
368,2622344,1
374,2623620,1
299,2624892,1
252,2626168,1
260,2627444,1
251,2628720,1
220,2629992,1
244,2631268,1
279,2632544,1
326,2633820,1
360,2635092,1
386,2636368,1
392,2637644,1
395,2638920,1
386,2640192,1
347,2641468,1
355,2642744,1
330,2644020,1
300,2645292,1
258,2646568,1
252,2647844,1
225,2649120,1
214,2650392,1
264,2651668,1
329,2652944,1
354,2654224,1
362,2655492,1
367,2656768,1
373,2658044,1
397,2659320,1
379,2660592,1
361,2661868,1
354,2663144,1
340,2664420,1
298,2665692,1
263,2666968,1
245,2668244,1
207,2669520,1
221,2670792,1
257,2672068,1
299,2673344,1
342,2674620,1
383,2675892,1
399,2677168,1
403,2678444,1
402,2679720,1
379,2680992,1
360,2682268,1
356,2683544,1
314,2684820,1
267,2686092,1
243,2687368,1
232,2688644,1
214,2689920,1
254,2691192,1
287,2692468,1
321,2693744,1
366,2695020,1
383,2696292,1
382,2697568,1
374,2698844,1
378,2700120,1
385,2701392,1
365,2702668,1
340,2703944,1
308,2705220,1
288,2706492,1
251,2707768,1
211,2709044,1
201,2710320,1
249,2711592,1
291,2712868,1
343,2714144,1
366,2715420,1
410,2716692,1
400,2717968,1
386,2719244,1
382,2720520,1
382,2721800,1
346,2723068,1
317,2724344,1
303,2725620,1
250,2726892,1
229,2728168,1
204,2729444,1
235,2730720,1
279,2731992,1
331,2733268,1
355,2734544,1
375,2735820,1
375,2737092,1
374,2738368,1
380,2739644,1
376,2740920,1
372,2742192,1
363,2743468,1
325,2744744,1
269,2746020,1
248,2747292,1
225,2748568,1
220,2749844,1
241,2751120,1
280,2752392,1
316,2753668,1
348,2754944,1
378,2756220,1
404,2757492,1
402,2758768,1
375,2760044,1
358,2761320,1
368,2762592,1
377,2763868,1
329,2765144,1
254,2766420,1
222,2767692,1
212,2768968,1
231,2770244,1
258,2771520,1
289,2772792,1
319,2774068,1
356,2775344,1
391,2776620,1
390,2777892,1
391,2779168,1
376,2780444,1
370,2781720,1
385,2782992,1
336,2784272,1
282,2785544,1
261,2786820,1
253,2788092,1
216,2789368,1
212,2790644,1
250,2791920,1
299,2793192,1
349,2794468,1
393,2795744,1
391,2797020,0
389,2798292,0
397,2799568,0
416,2800844,0
373,2802120,0
332,2803392,0
288,2804668,0
235,2805944,0
209,2807220,0
194,2808492,0
180,2809768,0
203,2811044,0
229,2812320,0
303,2813592,0
336,2814868,0
352,2816144,0
339,2817420,0
373,2818692,0
385,2819968,0
375,2821244,0
392,2822520,0
398,2823792,0
354,2825068,0
295,2826344,0
314,2827620,0
267,2828892,0
251,2830168,0
280,2831444,0
322,2832720,0
359,2833992,0
385,2835268,0
396,2836544,0
401,2837820,0
414,2839092,0
405,2840368,0
369,2841644,0
371,2842920,0
342,2844192,0
294,2845468,0
246,2846744,0
236,2848020,0
218,2849292,0
228,2850568,0
272,2851848,0
304,2853120,0
334,2854392,0
375,2855668,0
381,2856944,0
364,2858220,0
368,2859492,0
366,2860768,0
376,2862044,0
364,2863320,0
326,2864592,0
253,2865868,0
222,2867144,0
238,2868420,0
231,2869692,0
256,2870968,0
282,2872244,0
314,2873520,0
348,2874792,0
377,2876068,0
385,2877344,0
386,2878620,0
384,2879892,0
367,2881168,0
366,2882444,0
353,2883720,0
308,2884992,0
254,2886268,0
240,2887544,0
222,2888820,0
218,2890092,0
241,2891368,0
285,2892644,0
334,2893920,0
365,2895192,0
364,2896468,0
387,2897744,0
420,2899020,0
396,2900292,0
363,2901568,0
361,2902844,0
316,2904120,0
289,2905392,0
265,2906668,0
269,2907944,0
235,2909220,0
234,2910492,0
252,2911768,0
282,2913044,0
316,2914320,0
345,2915592,0
345,2916868,0
347,2918144,0
362,2919420,0
349,2920692,0
320,2921968,0
317,2923244,0
307,2924520,0
276,2925792,0
259,2927068,0
245,2928344,0
220,2929620,0
242,2930892,0
290,2932168,0
340,2933444,0
339,2934720,0
374,2935992,0
404,2937268,0
401,2938544,0
380,2939820,0
365,2941092,0
381,2942368,0
349,2943644,0
324,2944920,0
253,2946192,0
247,2947468,0
221,2948744,0
237,2950020,0
264,2951292,0
303,2952568,0
343,2953844,0
367,2955120,0
387,2956392,0
384,2957668,0
392,2958944,0
383,2960220,0
353,2961492,0
348,2962768,0
335,2964044,0
305,2965320,0
269,2966592,0
268,2967868,0
246,2969144,0
261,2970420,0
271,2971692,0
305,2972968,0
333,2974244,0
380,2975520,0
396,2976792,0
384,2978068,0
377,2979344,0
365,2980620,0
351,2981900,0
344,2983168,0
321,2984444,0
285,2985720,0
273,2986992,0
260,2988268,0
227,2989544,0
243,2990820,0
282,2992092,0
331,2993368,0
350,2994644,0
373,2995920,0
389,2997192,0
392,2998468,0
378,2999744,0
352,3001020,0
356,3002292,0
344,3003568,0
318,3004844,0
263,3006120,0
262,3007392,0
241,3008668,0
230,3009944,0
258,3011220,0
297,3012492,0
338,3013768,0
365,3015044,0
384,3016320,0
366,3017592,0
382,3018868,0
384,3020144,0
364,3021420,0
345,3022692,0
315,3023968,0
292,3025244,0
268,3026520,0
268,3027792,0
233,3029068,0
235,3030344,0
266,3031620,0
318,3032892,0
352,3034168,0
366,3035444,0
376,3036720,0
384,3037992,0
389,3039268,0
367,3040544,0
352,3041820,0
343,3043092,0
309,3044368,0
281,3045644,0
258,3046920,0
257,3048192,0
235,3049468,0
260,3050744,0
313,3052020,0
329,3053292,0
344,3054568,0
377,3055844,0
374,3057120,0
368,3058392,0
371,3059668,0
360,3060944,0
360,3062220,0
327,3063492,0
306,3064768,0
272,3066044,0
262,3067320,0
246,3068592,0
230,3069868,0
263,3071144,0
296,3072420,0
336,3073692,0
352,3074968,0
374,3076244,0
376,3077520,0
397,3078792,0
383,3080068,0
360,3081344,0
346,3082620,0
323,3083892,0
293,3085168,0
249,3086444,0
246,3087720,0
256,3088992,0
271,3090268,0
274,3091544,0
306,3092820,0
348,3094092,0
367,3095368,0
375,3096644,0
371,3097920,0
364,3099192,0
359,3100468,0
358,3101744,0
349,3103020,0
334,3104292,0
293,3105568,0
248,3106844,0
266,3108120,0
247,3109392,0
239,3110668,0
256,3111948,0
321,3113220,0
364,3114492,0
382,3115768,0
379,3117044,0
377,3118320,0
376,3119592,0
371,3120868,0
354,3122144,0
336,3123420,0
297,3124692,0
275,3125968,0
257,3127244,0
255,3128520,0
239,3129792,0
266,3131068,0
305,3132344,0
338,3133620,0
350,3134892,0
360,3136168,0
373,3137444,0
378,3138720,0
382,3139992,0
344,3141268,0
340,3142544,0
341,3143820,0
334,3145092,0
275,3146368,0
254,3147644,0
221,3148920,0
220,3150192,0
261,3151468,0
299,3152744,0
333,3154020,0
372,3155292,0
379,3156568,0
388,3157844,0
400,3159120,0
366,3160392,0
345,3161668,0
347,3162944,0
340,3164220,0
295,3165492,0
250,3166768,0
257,3168044,0
236,3169320,0
249,3170592,0
284,3171868,0
310,3173144,0
345,3174420,0
370,3175692,0
383,3176968,0
378,3178244,0
388,3179520,0
370,3180792,0
337,3182068,0
314,3183344,0
301,3184620,0
291,3185892,0
265,3187168,0
257,3188444,0
235,3189720,0
259,3190992,0
295,3192268,0
328,3193544,0
352,3194820,0
378,3196092,0
383,3197368,0
388,3198644,0
373,3199920,0
352,3201192,0
337,3202468,0
343,3203744,0
322,3205020,0
271,3206292,0
233,3207568,0
228,3208844,0
227,3210120,0
277,3211392,0
314,3212668,0
349,3213944,0
372,3215220,0
387,3216492,0
369,3217768,0
367,3219044,0
361,3220320,0
360,3221592,0
346,3222868,0
320,3224144,0
292,3225420,0
266,3226692,0
261,3227968,0
239,3229244,0
249,3230520,0
280,3231792,0
320,3233068,0
339,3234344,0
362,3235620,0
385,3236892,0
388,3238168,0
377,3239444,0
350,3240720,0
333,3242000,0
340,3243268,0
314,3244544,0
273,3245820,0
254,3247092,0
256,3248368,0
252,3249644,0
261,3250920,0
287,3252192,0
328,3253468,0
352,3254744,0
378,3256020,0
368,3257292,0
388,3258568,0
390,3259844,0
361,3261120,0
343,3262392,0
326,3263668,0
308,3264944,0
272,3266220,0
262,3267492,0
238,3268768,0
230,3270044,0
266,3271320,0
299,3272592,0
329,3273868,0
371,3275144,0
389,3276420,0
371,3277692,0
364,3278968,0
371,3280244,0
346,3281520,0
338,3282792,0
310,3284068,0
292,3285344,0
286,3286620,0
290,3287892,0
240,3289168,0
243,3290444,0
276,3291720,0
317,3292992,0
344,3294268,0
368,3295544,0
380,3296820,0
377,3298092,0
369,3299368,0
347,3300644,0
338,3301920,0
343,3303192,0
318,3304468,0
277,3305744,0
264,3307020,0
262,3308292,0
246,3309576,0
266,3310844,0
291,3312120,0
311,3313392,0
341,3314668,0
369,3315944,0
363,3317220,0
374,3318492,0
374,3319768,0
373,3321044,0
365,3322320,0
333,3323592,0
291,3324868,0
258,3326144,0
257,3327420,0
261,3328692,0
254,3329968,0
280,3331244,0
309,3332520,0
348,3333792,0
371,3335068,0
372,3336344,0
356,3337620,0
349,3338892,0
342,3340168,0
332,3341444,0
355,3342720,0
349,3343992,0
320,3345268,0
270,3346544,0
256,3347820,0
239,3349092,0
270,3350368,0
292,3351644,0
314,3352920,0
318,3354192,0
347,3355468,0
385,3356744,0
376,3358020,0
379,3359292,0
364,3360568,0
348,3361844,0
333,3363120,0
314,3364392,0
284,3365668,0
269,3366944,0
263,3368220,0
247,3369492,0
256,3370768,0
292,3372048,0
326,3373320,0
349,3374592,0
375,3375868,0
378,3377144,0
375,3378420,0
364,3379692,0
357,3380968,0
345,3382244,0
345,3383520,0
310,3384792,0
271,3386068,0
256,3387344,0
246,3388620,0
243,3389892,0
276,3391168,0
307,3392444,0
339,3393720,0
354,3394992,0
374,3396268,0
373,3397544,0
369,3398820,0
362,3400092,0
354,3401368,0
355,3402644,0
332,3403920,0
304,3405192,0
261,3406468,0
252,3407744,0
231,3409020,0
255,3410292,0
279,3411568,0
302,3412844,0
363,3414120,0
395,3415392,0
379,3416668,0
326,3417944,0
366,3419220,0
368,3420492,0
345,3421768,0
321,3423044,0
306,3424320,0
304,3425592,0
292,3426868,0
269,3428144,0
240,3429420,0
250,3430692,0
288,3431968,0
325,3433244,0
352,3434520,0
376,3435792,0
380,3437068,0
372,3438344,0
365,3439624,0
350,3440892,0
339,3442168,0
335,3443444,0
307,3444720,0
266,3445992,0
252,3447268,0
265,3448544,0
263,3449820,0
275,3451092,0
298,3452368,0
328,3453644,0
352,3454920,0
370,3456192,0
371,3457468,0
373,3458744,0
370,3460020,0
341,3461292,0
332,3462568,0
339,3463844,0
324,3465120,0
278,3466392,0
255,3467668,0
237,3468944,0
241,3470220,0
273,3471492,0
315,3472768,0
352,3474044,0
369,3475320,0
373,3476592,0
358,3477868,0
367,3479144,0
361,3480420,0
343,3481692,0
339,3482968,0
323,3484244,0
286,3485520,0
268,3486792,0
273,3488068,0
245,3489344,0
255,3490620,0
285,3491892,0
320,3493168,0
351,3494444,0
353,3495720,0
380,3496992,0
390,3498268,0
385,3499544,0
349,3500820,0
338,3502096,0
329,3503368,0
314,3504644,0
291,3505920,0
267,3507192,0
243,3508468,0
222,3509744,0
257,3511020,0
302,3512292,0
338,3513568,0
358,3514844,0
365,3516120,0
372,3517392,0
378,3518668,0
377,3519944,0
345,3521220,0
342,3522492,0
323,3523768,0
289,3525044,0
258,3526320,0
281,3527592,0
266,3528868,0
274,3530144,0
282,3531420,0
307,3532692,0
339,3533968,0
361,3535244,0
368,3536520,0
368,3537792,0
373,3539068,0
358,3540344,0
338,3541620,0
340,3542892,0
320,3544168,0
293,3545444,0
269,3546720,0
270,3547992,0
246,3549268,0
246,3550544,0
283,3551820,0
328,3553092,0
359,3554368,0
373,3555644,0
361,3556920,0
343,3558192,0
366,3559468,0
358,3560744,0
352,3562020,0
334,3563292,0
322,3564568,0
281,3565844,0
264,3567120,0
260,3568392,0
238,3569676,0
276,3570944,0
300,3572220,0
335,3573492,0
361,3574768,0
369,3576044,0
395,3577320,0
390,3578592,0
371,3579868,0
339,3581144,0
316,3582420,0
322,3583692,0
310,3584968,0
282,3586244,0
257,3587520,0
239,3588792,0
244,3590068,0
269,3591344,0
316,3592620,0
371,3593892,0
370,3595168,0
361,3596444,0
353,3597720,0
367,3598992,0
359,3600268,0
342,3601544,0
341,3602820,0
326,3604092,0
302,3605368,0
270,3606644,0
262,3607920,0
237,3609192,0
255,3610468,0
290,3611744,0
325,3613020,0
354,3614292,0
373,3615568,0
371,3616844,0
380,3618120,0
372,3619392,0
333,3620668,0
322,3621944,0
321,3623220,0
318,3624492,0
299,3625768,0
274,3627044,0
265,3628320,0
245,3629592,0
259,3630868,0
291,3632144,0
334,3633420,0
351,3634692,0
372,3635968,0
388,3637244,0
379,3638520,0
367,3639792,0
346,3641068,0
345,3642344,0
333,3643620,0
309,3644892,0
267,3646168,0
259,3647444,0
241,3648720,0
249,3649992,0
275,3651268,0
307,3652544,0
343,3653820,0
358,3655092,0
369,3656368,0
362,3657644,0
377,3658920,0
373,3660192,0
347,3661468,0
345,3662744,0
324,3664020,0
289,3665292,0
264,3666568,0
270,3667844,0
255,3669120,0
256,3670392,0
283,3671668,0
314,3672944,0
340,3674220,0
371,3675492,0
380,3676768,0
366,3678044,0
361,3679320,0
354,3680592,0
339,3681868,0
337,3683144,0
314,3684420,0
286,3685692,0
277,3686968,0
277,3688244,0
250,3689520,0
240,3690792,0
288,3692068,0
332,3693344,0
349,3694620,0
369,3695892,0
384,3697168,0
381,3698444,0
367,3699724,0
341,3700992,0
331,3702268,0
338,3703544,0
327,3704820,0
280,3706092,0
254,3707368,0
241,3708644,0
247,3709920,0
272,3711192,0
303,3712468,0
340,3713744,0
365,3715020,0
378,3716292,0
372,3717568,0
379,3718844,0
365,3720120,0
343,3721392,0
339,3722668,0
326,3723944,0
300,3725220,0
267,3726492,0
257,3727768,0
246,3729044,0
260,3730320,0
300,3731592,0
309,3732868,0
341,3734144,0
368,3735420,0
371,3736692,0
367,3737968,0
376,3739244,0
372,3740520,0
354,3741792,0
353,3743068,0
333,3744344,0
297,3745620,0
270,3746892,0
272,3748168,0
245,3749444,0
259,3750720,0
283,3751992,0
326,3753268,0
356,3754544,0
381,3755820,0
380,3757092,0
379,3758368,0
374,3759644,0
360,3760920,0
348,3762192,0
332,3763468,0
312,3764744,0
278,3766020,0
268,3767292,0
266,3768568,0
243,3769844,0
255,3771120,0
268,3772392,0
326,3773668,0
339,3774944,0
392,3776220,0
402,3777492,0
410,3778768,0
372,3780044,0
328,3781320,0
337,3782592,0
331,3783868,0
299,3785144,0
263,3786420,0
253,3787692,0
233,3788968,0
237,3790244,0
260,3791520,0
292,3792792,0
337,3794068,0
368,3795344,0
376,3796620,0
373,3797892,0
381,3799168,0
360,3800444,0
340,3801720,0
343,3802992,0
336,3804268,0
293,3805544,0
261,3806820,0
257,3808092,0
227,3809368,0
237,3810644,0
271,3811920,0
313,3813192,0
348,3814468,0
379,3815744,0
401,3817020,0
371,3818292,0
365,3819568,0
342,3820844,0
345,3822120,0
343,3823392,0
316,3824668,0
280,3825944,0
260,3827220,0
247,3828492,0
233,3829776,0
258,3831044,0
292,3832320,0
330,3833592,0
351,3834868,0
374,3836144,0
377,3837420,0
374,3838692,0
370,3839968,0
366,3841244,0
368,3842520,0
344,3843792,0
298,3845068,0
269,3846344,0
266,3847620,0
233,3848892,0
211,3850168,0
239,3851444,0
293,3852720,0
356,3853992,0
372,3855268,0
377,3856544,0
369,3857820,0
389,3859092,0
373,3860368,0
349,3861644,0
352,3862920,0
342,3864192,0
297,3865468,0
259,3866744,0
257,3868020,0
229,3869292,0
233,3870568,0
264,3871844,0
319,3873120,0
357,3874392,0
369,3875668,0
384,3876944,0
381,3878220,0
377,3879492,0
361,3880768,0
348,3882044,0
342,3883320,0
321,3884592,0
286,3885868,0
259,3887144,0
263,3888420,0
243,3889692,0
244,3890968,0
255,3892244,0
313,3893520,0
370,3894792,0
385,3896068,0
372,3897348,0
371,3898620,0
377,3899892,0
373,3901168,0
357,3902444,0
349,3903720,0
303,3904992,0
265,3906268,0
231,3907544,0
232,3908820,0
237,3910092,0
294,3911368,0
309,3912644,0
366,3913920,0
363,3915192,0
348,3916468,0
337,3917744,0
389,3919020,0
415,3920292,0
353,3921568,0
313,3922844,0
313,3924120,0
299,3925392,0
199,3926668,0
246,3927944,0
293,3929220,0
327,3930492,0
276,3931768,0
308,3933044,0
337,3934320,0
346,3935592,0
386,3936868,0
363,3938144,0
373,3939420,0
356,3940692,0
385,3941968,0
354,3943244,0
315,3944520,0
255,3945792,0
247,3947068,0
257,3948344,0
238,3949620,0
253,3950892,0
278,3952168,0
281,3953444,0
234,3954720,1
364,3955992,1
422,3957268,1
424,3958544,1
301,3959824,1
381,3961092,1
311,3962368,1
379,3963644,1
389,3964920,1
278,3966192,1
218,3967468,1
244,3968744,1
259,3970020,1
302,3971292,1
308,3972568,1
297,3973844,1
395,3975120,1
450,3976392,1
370,3977668,1
378,3978944,1
377,3980220,1
369,3981492,1
380,3982768,1
350,3984044,1
294,3985320,1
237,3986592,1
264,3987868,1
189,3989144,1
231,3990420,1
334,3991692,1
335,3992968,1
243,3994244,1
371,3995520,1
433,3996792,1
394,3998068,1
377,3999344,1
402,4000620,1
338,4001892,1
330,4003168,1
280,4004444,1
236,4005720,1
314,4006992,1
373,4008268,1
182,4009544,1
185,4010820,1
227,4012092,1
343,4013368,1
365,4014644,1
386,4015920,1
372,4017192,1
320,4018468,1
395,4019744,1
430,4021020,1
342,4022292,1
296,4023568,1
328,4024844,1
347,4026120,1
282,4027400,1
211,4028668,1
252,4029944,1
238,4031220,1
281,4032492,1
406,4033768,1
365,4035044,1
301,4036320,1
360,4037592,1
411,4038868,1
425,4040144,1
301,4041420,1
283,4042692,1
336,4043968,1
361,4045244,1
271,4046520,1
302,4047792,1
286,4049068,1
247,4050344,1
244,4051620,1
286,4052892,1
270,4054168,1
384,4055444,1
435,4056720,1
373,4057992,1
380,4059268,1
368,4060544,1
325,4061820,1
268,4063092,1
277,4064368,1
360,4065644,1
369,4066920,1
319,4068192,1
150,4069468,1
238,4070744,1
298,4072020,1
319,4073292,1
337,4074568,1
351,4075844,1
365,4077120,1
396,4078392,1
392,4079668,1
368,4080944,1
322,4082220,1
276,4083492,1
343,4084768,1
387,4086044,1
290,4087320,1
185,4088592,1
201,4089872,1
253,4091144,1
270,4092420,1
324,4093692,1
354,4094968,1
389,4096244,1
398,4097520,1
330,4098792,1
403,4100068,1
381,4101344,1
327,4102620,1
373,4103892,1
368,4105168,1
264,4106444,1
224,4107720,1
164,4108992,1
186,4110268,1
283,4111544,1
389,4112820,1
334,4114092,1
427,4115368,1
374,4116644,1
369,4117920,1
400,4119192,1
280,4120468,1
313,4121744,1
362,4123020,1
327,4124292,1
273,4125568,1
288,4126844,1
280,4128120,1
173,4129392,1
186,4130668,1
340,4131944,1
363,4133220,1
385,4134492,1
384,4135768,1
400,4137044,1
399,4138320,1
370,4139592,1
328,4140868,1
326,4142144,1
320,4143420,1
308,4144692,1
280,4145968,1
292,4147244,1
273,4148520,1
182,4149792,1
236,4151068,1
310,4152344,1
321,4153620,1
341,4154892,1
376,4156168,1
389,4157448,1
350,4158720,1
332,4159992,1
325,4161268,1
309,4162544,1
415,4163820,1
391,4165092,1
295,4166368,1
258,4167644,1
219,4168920,1
219,4170192,1
268,4171468,1
341,4172744,1
365,4174020,1
315,4175292,1
350,4176568,1
367,4177844,1
401,4179120,1
381,4180392,1
364,4181668,1
364,4182944,1
308,4184220,1
254,4185492,1
241,4186768,1
241,4188044,1
230,4189320,1
257,4190592,1
270,4191868,1
324,4193144,1
361,4194420,1
368,4195692,1
372,4196968,1
373,4198244,1
397,4199520,1
388,4200792,1
360,4202068,1
325,4203344,1
279,4204620,1
277,4205892,1
259,4207168,1
248,4208444,1
230,4209720,1
262,4210992,1
283,4212268,1
331,4213544,1
345,4214820,1
366,4216092,1
382,4217368,1
403,4218644,1
369,4219920,1
361,4221192,1
381,4222468,1
357,4223744,1
302,4225020,1
228,4226292,1
227,4227568,1
233,4228844,1
239,4230120,1
260,4231392,1
309,4232668,1
356,4233944,1
398,4235220,1
363,4236492,1
360,4237768,1
374,4239044,1
374,4240320,1
368,4241592,1
344,4242868,1
315,4244144,1
287,4245420,1
260,4246692,1
282,4247968,1
259,4249244,1
222,4250520,1
224,4251792,1
324,4253068,1
359,4254344,1
377,4255620,1
357,4256892,1
381,4258168,1
387,4259444,1
373,4260720,1
341,4261992,1
328,4263268,1
306,4264544,1
277,4265820,1
257,4267092,1
265,4268368,1
250,4269644,1
260,4270920,1
300,4272192,1
337,4273468,1
335,4274744,1
362,4276020,1
379,4277292,1
382,4278568,1
382,4279844,1
359,4281120,1
329,4282392,1
324,4283668,1
308,4284944,1
298,4286220,1
264,4287500,1
234,4288768,1
229,4290044,1
261,4291320,1
279,4292592,1
310,4293868,1
355,4295144,1
372,4296420,1
361,4297692,1
372,4298968,1
352,4300244,1
329,4301520,1
329,4302792,1
319,4304068,1
301,4305344,1
269,4306620,1
264,4307892,1
245,4309168,1
240,4310444,1
266,4311720,1
312,4312992,1
366,4314268,1
383,4315544,1
378,4316820,1
381,4318092,1
379,4319368,1
357,4320644,1
363,4321920,1
348,4323192,1
325,4324468,1
311,4325744,1
259,4327020,1
243,4328292,1
229,4329568,1
260,4330844,1
287,4332120,1
336,4333392,1
362,4334668,1
368,4335944,1
360,4337220,1
385,4338492,1
393,4339768,1
369,4341044,1
352,4342320,1
351,4343592,1
328,4344868,1
288,4346144,1
262,4347420,1
235,4348692,1
264,4349968,1
259,4351244,1
290,4352520,1
323,4353792,1
355,4355068,1
379,4356344,1
387,4357620,1
402,4358892,0
384,4360168,0
333,4361444,0
362,4362720,0
313,4363992,0
268,4365268,0
252,4366544,0
234,4367820,0
208,4369092,0
220,4370368,0
266,4371644,0
305,4372920,0
344,4374192,0
370,4375468,0
392,4376744,0
410,4378020,0
410,4379292,0
383,4380568,0
349,4381844,0
343,4383120,0
335,4384392,0
311,4385668,0
265,4386944,0
254,4388220,0
236,4389492,0
270,4390768,0
296,4392044,0
352,4393320,0
375,4394592,0
373,4395868,0
364,4397144,0
359,4398420,0
379,4399692,0
369,4400968,0
349,4402244,0
313,4403520,0
308,4404792,0
282,4406068,0
267,4407344,0
243,4408620,0
232,4409892,0
250,4411168,0
290,4412444,0
334,4413720,0
379,4414992,0
397,4416268,0
381,4417548,0
372,4418820,0
359,4420092,0
336,4421368,0
340,4422644,0
328,4423920,0
308,4425192,0
269,4426468,0
260,4427744,0
244,4429020,0
247,4430292,0
270,4431568,0
300,4432844,0
328,4434120,0
368,4435392,0
375,4436668,0
377,4437944,0
397,4439220,0
394,4440492,0
329,4441768,0
327,4443044,0
323,4444320,0
317,4445592,0
269,4446868,0
254,4448144,0
226,4449420,0
253,4450692,0
273,4451968,0
324,4453244,0
336,4454520,0
377,4455792,0
379,4457068,0
373,4458344,0
376,4459620,0
361,4460892,0
334,4462168,0
329,4463444,0
309,4464720,0
285,4465992,0
268,4467268,0
251,4468544,0
240,4469820,0
261,4471092,0
289,4472368,0
329,4473644,0
357,4474920,0
376,4476192,0
379,4477468,0
389,4478744,0
375,4480020,0
358,4481292,0
354,4482568,0
327,4483844,0
301,4485120,0
263,4486392,0
256,4487668,0
236,4488944,0
232,4490220,0
278,4491492,0
325,4492768,0
349,4494044,0
357,4495320,0
364,4496592,0
364,4497868,0
378,4499144,0
359,4500420,0
353,4501692,0
361,4502968,0
343,4504244,0
272,4505520,0
241,4506792,0
271,4508068,0
263,4509344,0
238,4510620,0
269,4511892,0
315,4513168,0
349,4514444,0
379,4515720,0
383,4516992,0
386,4518268,0
369,4519544,0
346,4520820,0
349,4522092,0
347,4523368,0
321,4524644,0
279,4525920,0
262,4527192,0
246,4528468,0
219,4529744,0
246,4531020,0
308,4532292,0
350,4533568,0
351,4534844,0
367,4536120,0
380,4537392,0
380,4538668,0
375,4539944,0
356,4541220,0
343,4542492,0
338,4543768,0
316,4545044,0
268,4546320,0
253,4547600,0
233,4548868,0
239,4550144,0
270,4551420,0
302,4552692,0
324,4553968,0
358,4555244,0
398,4556520,0
404,4557792,0
380,4559068,0
361,4560344,0
351,4561620,0
347,4562892,0
322,4564168,0
275,4565444,0
256,4566720,0
266,4567992,0
232,4569268,0
235,4570544,0
289,4571820,0
349,4573092,0
359,4574368,0
382,4575644,0
380,4576920,0
356,4578192,0
345,4579468,0
341,4580744,0
328,4582020,0
315,4583292,0
316,4584568,0
256,4585844,0
209,4587120,0
205,4588392,0
247,4589668,0
271,4590944,0
278,4592220,0
327,4593492,0
367,4594768,0
378,4596044,0
350,4597320,0
346,4598592,0
349,4599868,0
340,4601144,0
357,4602420,0
344,4603692,0
299,4604968,0
272,4606244,0
286,4607520,0
269,4608792,0
269,4610068,0
295,4611344,0
317,4612620,0
334,4613892,0
360,4615176,0
384,4616444,0
386,4617720,0
374,4618992,0
367,4620268,0
357,4621544,0
368,4622820,0
333,4624092,0
291,4625368,0
240,4626644,0
255,4627920,0
272,4629192,0
269,4630468,0
286,4631744,0
311,4633020,0
352,4634292,0
385,4635568,0
387,4636844,0
368,4638120,0
376,4639392,0
347,4640668,0
337,4641944,0
327,4643220,0
319,4644492,0
281,4645768,0
272,4647044,0
279,4648320,0
261,4649592,0
268,4650868,0
296,4652144,0
308,4653420,0
342,4654692,0
338,4655968,0
362,4657244,0
405,4658520,0
435,4659792,0
377,4661068,0
278,4662344,0
318,4663620,0
297,4664892,0
222,4666168,0
270,4667444,0
287,4668720,0
300,4669992,0
246,4671268,0
310,4672544,0
376,4673820,0
405,4675092,0
345,4676368,0
343,4677648,0
363,4678920,0
347,4680192,0
327,4681468,0
379,4682744,0
317,4684020,0
221,4685292,0
228,4686568,0
305,4687844,0
279,4689120,0
280,4690392,0
303,4691668,0
356,4692944,0
406,4694220,0
333,4695492,0
311,4696768,0
221,4698044,1
501,4699320,1
431,4700592,1
322,4701868,1
243,4703144,1
253,4704420,1
249,4705692,1
324,4706968,1
435,4708244,1
319,4709520,1
189,4710792,1
335,4712068,1
418,4713344,1
411,4714620,1
340,4715892,1
356,4717168,1
459,4718444,1
404,4719720,1
306,4720992,1
338,4722268,1
339,4723544,1
298,4724820,1
211,4726092,1
211,4727368,1
279,4728644,1
272,4729920,1
217,4731192,1
307,4732468,1
395,4733744,1
419,4735020,1
301,4736292,1
382,4737568,1
553,4738844,1
303,4740120,1
248,4741392,1
260,4742668,1
322,4743944,1
307,4745224,1
286,4746492,1
201,4747768,1
210,4749044,1
259,4750320,1
287,4751592,1
283,4752868,1
325,4754144,1
344,4755420,1
393,4756692,1
411,4757968,1
410,4759244,1
360,4760520,1
415,4761792,1
393,4763068,1
254,4764344,1
214,4765620,1
306,4766892,1
356,4768168,1
257,4769444,1
202,4770720,1
164,4771992,1
243,4773268,1
369,4774544,1
347,4775820,1
427,4777092,1
408,4778368,1
305,4779644,1
302,4780920,1
394,4782192,1
407,4783468,1
460,4784744,1
297,4786020,1
239,4787292,1
222,4788568,1
211,4789844,1
244,4791120,1
275,4792392,1
334,4793668,1
444,4794944,1
339,4796220,1
219,4797492,1
340,4798768,1
420,4800044,1
389,4801320,1
377,4802592,1
385,4803868,1
403,4805144,1
193,4806420,1
220,4807696,1
252,4808968,1
254,4810244,1
192,4811520,1
279,4812792,1
324,4814068,1
404,4815344,1
409,4816620,1
388,4817892,1
396,4819168,1
325,4820444,1
253,4821720,1
364,4822992,1
330,4824268,1
299,4825544,1
341,4826820,1
341,4828092,1
236,4829368,1
187,4830644,1
239,4831920,1
341,4833192,1
389,4834468,1
470,4835744,1
471,4837020,1
271,4838292,1
284,4839568,1
310,4840844,1
356,4842120,1
346,4843392,1
342,4844668,1
274,4845944,1
239,4847220,1
229,4848492,1
237,4849768,1
356,4851044,1
323,4852320,1
195,4853592,1
246,4854868,1
447,4856144,1
375,4857420,1
359,4858692,1
512,4859968,1
470,4861244,1
330,4862520,1
311,4863792,1
295,4865068,1
234,4866344,1
236,4867620,1
209,4868892,1
240,4870168,1
340,4871444,1
291,4872720,1
154,4873992,1
384,4875276,1
587,4876544,1
459,4877820,1
337,4879092,1
286,4880368,1
377,4881644,1
357,4882920,1
322,4884192,1
275,4885468,1
237,4886744,1
243,4888020,1
210,4889292,1
263,4890568,1
313,4891844,1
350,4893120,1
378,4894392,1
373,4895668,1
300,4896944,1
366,4898220,1
482,4899492,1
332,4900768,1
371,4902044,1
380,4903320,1
221,4904592,1
209,4905868,1
252,4907144,1
262,4908420,1
265,4909692,1
275,4910968,1
294,4912244,1
352,4913520,1
339,4914792,1
381,4916068,1
397,4917344,1
356,4918620,1
333,4919892,1
356,4921168,1
377,4922444,1
355,4923720,1
285,4924992,1
256,4926268,1
240,4927544,1
255,4928820,1
252,4930092,1
276,4931368,1
306,4932644,1
342,4933920,1
362,4935192,1
383,4936468,1
378,4937744,1
402,4939020,1
394,4940292,1
322,4941568,1
303,4942844,1
322,4944120,1
336,4945392,1
226,4946668,1
242,4947944,1
220,4949220,1
297,4950492,1
310,4951768,1
330,4953044,1
316,4954320,1
361,4955592,1
395,4956868,1
376,4958144,1
356,4959420,1
337,4960692,1
281,4961968,1
347,4963244,1
408,4964520,1
315,4965792,1
256,4967068,1
253,4968344,1
237,4969620,1
257,4970892,1
293,4972168,1
316,4973444,1
337,4974720,1
360,4975992,1
381,4977268,1
384,4978544,1
377,4979820,1
355,4981092,1
342,4982368,1
337,4983644,1
301,4984920,1
274,4986192,1
253,4987468,1
243,4988744,1
234,4990020,1
277,4991292,1
298,4992568,1
334,4993844,1
363,4995120,1
393,4996392,1
402,4997668,1
379,4998944,1
353,5000220,1
323,5001492,1
338,5002768,1
343,5004044,1
291,5005324,1
259,5006592,1
266,5007868,1
261,5009144,1
261,5010420,1
262,5011692,1
300,5012968,1
319,5014244,1
376,5015520,1
387,5016792,1
377,5018068,1
382,5019344,1
364,5020620,1
337,5021892,1
334,5023168,1
314,5024444,1
295,5025720,1
284,5026992,1
263,5028268,1
212,5029544,1
247,5030820,1
286,5032092,1
334,5033368,1
356,5034644,1
370,5035920,1
370,5037192,1
372,5038468,1
386,5039744,1
359,5041020,1
340,5042292,1
342,5043568,1
313,5044844,1
287,5046120,1
261,5047392,1
263,5048668,1
252,5049944,1
242,5051220,1
278,5052492,1
352,5053768,1
367,5055044,1
378,5056320,1
380,5057592,1
386,5058868,1
378,5060144,1
348,5061420,1
347,5062692,1
329,5063968,1
294,5065244,1
251,5066520,1
252,5067792,1
219,5069068,1
235,5070344,1
287,5071620,1
355,5072892,1
359,5074168,1
375,5075444,1
387,5076720,1
372,5077992,1
359,5079268,1
388,5080544,1
361,5081820,1
334,5083092,1
300,5084368,1
270,5085644,1
242,5086920,1
254,5088192,1
235,5089468,1
262,5090744,1
294,5092020,1
322,5093292,1
332,5094568,1
374,5095844,1
381,5097120,1
381,5098392,1
394,5099668,1
368,5100944,1
352,5102220,1
348,5103492,1
308,5104768,1
256,5106044,1
243,5107320,1
268,5108592,1
256,5109868,1
274,5111144,0
281,5112420,0
342,5113692,0
364,5114968,0
370,5116244,0
342,5117520,0
341,5118792,0
336,5120068,0
299,5121344,0
288,5122620,0
279,5123892,0
260,5125168,0
244,5126444,0
253,5127720,0
250,5128992,0
254,5130268,0
269,5131544,0
315,5132820,0
353,5134092,0
364,5135376,0
380,5136644,0
385,5137920,0
390,5139192,0
380,5140468,0
360,5141744,0
337,5143020,0
336,5144292,0
316,5145568,0
304,5146844,0
301,5148120,0
264,5149392,0
260,5150668,0
328,5151944,0
375,5153220,0
370,5154492,0
401,5155768,0
422,5157044,0
417,5158320,0
398,5159592,0
365,5160868,0
343,5162144,0
341,5163420,0
326,5164692,0
283,5165968,0
271,5167244,0
249,5168520,0
209,5169792,0
229,5171068,0
272,5172344,0
316,5173620,0
349,5174892,0
378,5176168,0
394,5177444,0
386,5178720,0
355,5179992,0
332,5181268,0
349,5182544,0
348,5183820,0
301,5185092,0
247,5186368,0
232,5187644,0
220,5188920,0
236,5190192,0
282,5191468,0
306,5192744,0
340,5194020,0
374,5195292,0
379,5196568,0
364,5197844,0
366,5199120,0
366,5200392,0
343,5201668,0
342,5202948,0
325,5204220,0
293,5205492,0
256,5206768,0
253,5208044,0
227,5209320,0
243,5210592,0
309,5211868,0
348,5213144,0
340,5214420,0
347,5215692,0
374,5216968,0
382,5218244,0
379,5219520,0
366,5220792,0
336,5222068,0
309,5223344,0
271,5224620,0
257,5225892,0
248,5227168,0
243,5228444,0
219,5229720,0
248,5230992,0
273,5232268,0
311,5233544,0
346,5234820,0
363,5236092,0
324,5237368,0
366,5238644,0
386,5239920,0
357,5241192,0
342,5242468,0
338,5243744,0
313,5245020,0
276,5246292,0
270,5247568,0
255,5248844,0
239,5250120,0
272,5251392,0
334,5252668,0
386,5253944,0
378,5255220,0
382,5256492,0
372,5257768,0
374,5259044,0
366,5260320,0
337,5261592,0
327,5262868,0
316,5264144,0
326,5265424,0
316,5266692,0
260,5267968,0
229,5269244,0
240,5270520,0
297,5271792,0
333,5273068,0
357,5274344,0
388,5275620,0
381,5276892,0
361,5278168,0
375,5279444,0
371,5280720,0
328,5281992,0
308,5283268,0
320,5284544,0
294,5285820,0
273,5287092,0
263,5288368,0
243,5289644,0
258,5290920,0
315,5292192,0
356,5293468,0
364,5294744,0
340,5296020,0
345,5297292,0
359,5298568,0
392,5299844,0
370,5301120,0
343,5302392,0
334,5303668,0
304,5304944,0
266,5306220,0
261,5307492,0
249,5308768,0
248,5310044,0
274,5311320,0
308,5312592,0
354,5313868,0
362,5315144,0
363,5316420,0
352,5317692,0
372,5318968,0
374,5320244,0
348,5321520,0
341,5322792,0
335,5324068,0
292,5325344,0
259,5326620,0
264,5327892,0
241,5329168,0
251,5330444,0
284,5331720,0
336,5333000,0
358,5334268,0
362,5335544,0
381,5336820,0
377,5338092,0
353,5339368,0
344,5340644,0
339,5341920,0
336,5343192,0
323,5344468,0
264,5345744,0
255,5347020,0
259,5348292,0
234,5349568,0
248,5350844,0
319,5352120,0
363,5353392,0
375,5354668,0
369,5355944,0
326,5357220,0
360,5358492,0
351,5359768,0
362,5361044,0
389,5362320,0
331,5363592,0
240,5364868,0
240,5366144,0
319,5367420,0
261,5368692,0
263,5369968,0
313,5371244,0
364,5372520,0
274,5373792,0
308,5375068,0
339,5376344,0
349,5377620,0
355,5378892,0
338,5380168,0
335,5381444,0
428,5382720,0
366,5383992,0
307,5385268,0
269,5386544,0
238,5387820,0
251,5389092,0
253,5390368,0
312,5391644,0
334,5392920,0
290,5394192,0
334,5395472,1
343,5396744,1
433,5398020,1
411,5399292,1
345,5400568,1
349,5401844,1
394,5403120,1
434,5404392,1
326,5405668,1
167,5406944,1
264,5408220,1
293,5409492,1
365,5410768,1
289,5412044,1
226,5413320,1
325,5414592,1
404,5415868,1
394,5417144,1
467,5418420,1
308,5419692,1
312,5420968,1
432,5422244,1
372,5423520,1
297,5424792,1
224,5426068,1
274,5427344,1
268,5428620,1
194,5429892,1
162,5431168,1
202,5432444,1
362,5433720,1
424,5434992,1
347,5436268,1
378,5437544,1
487,5438820,1
453,5440092,1
231,5441368,1
363,5442644,1
395,5443920,1
262,5445192,1
183,5446468,1
276,5447744,1
267,5449020,1
205,5450292,1
237,5451568,1
230,5452844,1
315,5454120,1
400,5455392,1
444,5456668,1
454,5457944,1
397,5459220,1
395,5460492,1
296,5461768,1
334,5463048,1
341,5464320,1
296,5465592,1
152,5466868,1
264,5468144,1
213,5469420,1
269,5470692,1
323,5471968,1
323,5473244,1
269,5474520,1
424,5475792,1
371,5477068,1
361,5478344,1
351,5479620,1
315,5480892,1
394,5482168,1
433,5483444,1
314,5484720,1
239,5485992,1
298,5487268,1
225,5488544,1
212,5489820,1
382,5491092,1
353,5492368,1
305,5493644,1
284,5494920,1
285,5496192,1
408,5497468,1
366,5498744,1
362,5500020,1
427,5501292,1
340,5502568,1
379,5503844,1
276,5505120,1
235,5506392,1
171,5507668,1
186,5508944,1
274,5510220,1
209,5511492,1
374,5512768,1
294,5514044,1
383,5515320,1
372,5516592,1
434,5517868,1
425,5519144,1
349,5520420,1
220,5521692,1
388,5522968,1
638,5524244,1
415,5525520,1
128,5526792,1
83,5527984,1
198,5529260,1
208,5530532,1
282,5531808,1
485,5533084,1
325,5534360,1
227,5535632,1
347,5536908,1
361,5538184,1
354,5539460,1
385,5540732,1
401,5542008,1
327,5543284,1
343,5544560,1
313,5545832,1
122,5547108,1
265,5548384,1
386,5549660,1
312,5550932,1
234,5552208,1
327,5553484,1
371,5554760,1
353,5556032,1
323,5557308,1
397,5558584,1
475,5559860,1
297,5561132,1
308,5562408,1
335,5563684,1
408,5564960,1
386,5566232,1
255,5567508,1
146,5568784,1
116,5570060,1
265,5571332,1
264,5572616,1
327,5573884,1
398,5575160,1
384,5576432,1
405,5577708,1
333,5578984,1
347,5580260,1
450,5581532,1
336,5582808,1
390,5584084,1
419,5585360,1
219,5586632,1
209,5587908,1
210,5589184,1
235,5590460,1
280,5591732,1
289,5593008,1
344,5594284,1
382,5595560,1
367,5596832,1
350,5598108,1
342,5599384,1
340,5600660,1
372,5601932,1
364,5603208,1
305,5604484,1
236,5605760,1
241,5607032,1
291,5608308,1
360,5609584,1
264,5610860,1
233,5612132,1
312,5613408,1
341,5614684,1
372,5615960,1
369,5617232,1
379,5618508,1
378,5619784,1
357,5621060,1
352,5622332,1
317,5623608,1
312,5624884,1
235,5626160,1
271,5627432,1
287,5628708,1
253,5629984,1
254,5631260,1
281,5632532,1
332,5633808,1
369,5635088,1
369,5636360,1
339,5637632,1
327,5638908,1
428,5640184,1
409,5641460,1
369,5642732,1
334,5644008,1
298,5645284,1
269,5646560,1
223,5647832,1
263,5649108,1
319,5650384,1
281,5651660,1
217,5652932,1
263,5654208,1
377,5655484,1
421,5656760,1
385,5658032,1
386,5659308,1
342,5660584,1
314,5661860,1
341,5663132,1
376,5664408,1
283,5665684,1
276,5666960,1
272,5668232,1
179,5669508,1
290,5670784,1
316,5672060,1
244,5673332,1
326,5674608,1
383,5675884,1
404,5677160,1
377,5678432,1
382,5679708,1
368,5680984,1
352,5682260,1
324,5683532,1
299,5684808,1
268,5686084,1
270,5687360,1
261,5688632,1
242,5689908,1
267,5691184,1
304,5692460,1
315,5693732,1
364,5695008,1
392,5696284,1
365,5697560,1
374,5698832,1
371,5700108,1
349,5701384,1
349,5702664,1
338,5703932,1
299,5705208,1
265,5706484,1
258,5707760,1
227,5709032,1
238,5710308,1
290,5711584,1
328,5712860,1
341,5714132,1
362,5715408,1
371,5716684,1
367,5717960,1
387,5719232,1
375,5720508,1
341,5721784,1
336,5723060,1
336,5724332,1
286,5725608,1
248,5726884,1
271,5728160,1
236,5729432,1
232,5730708,1
270,5731984,1
329,5733260,1
351,5734532,1
391,5735808,1
382,5737084,1
373,5738360,1
389,5739632,1
386,5740908,1
339,5742184,1
319,5743460,1
302,5744732,1
267,5746008,1
263,5747284,1
259,5748560,1
250,5749832,1
247,5751108,1
272,5752384,1
319,5753660,1
395,5754932,1
404,5756208,1
356,5757484,1
358,5758760,1
403,5760032,1
381,5761308,1
339,5762584,1
336,5763860,1
312,5765136,1
278,5766408,1
258,5767684,1
229,5768960,1
226,5770232,1
268,5771508,1
317,5772784,1
341,5774060,1
357,5775332,1
370,5776608,1
368,5777884,1
393,5779160,1
392,5780432,1
346,5781708,1
339,5782984,1
331,5784260,1
259,5785532,1
240,5786808,1
277,5788084,1
253,5789360,1
232,5790632,1
254,5791908,1
317,5793184,1
353,5794460,1
378,5795732,1
381,5797008,1
381,5798284,1
395,5799560,1
369,5800832,1
341,5802108,1
331,5803384,1
307,5804660,1
269,5805932,1
260,5807208,1
285,5808484,1
246,5809760,1
244,5811032,1
273,5812308,1
327,5813584,1
348,5814860,1
362,5816132,1
365,5817408,1
397,5818684,1
377,5819960,1
354,5821232,1
362,5822508,1
367,5823784,0
301,5825060,0
296,5826332,0
261,5827608,0
211,5828884,0
191,5830160,0
231,5831432,0
271,5832716,0
309,5833984,0
327,5835260,0
334,5836532,0
336,5837808,0
362,5839084,0
361,5840360,0
337,5841632,0
340,5842908,0
325,5844184,0
298,5845460,0
271,5846732,0
270,5848008,0
243,5849284,0
256,5850560,0
261,5851832,0
336,5853108,0
381,5854384,0
388,5855660,0
402,5856932,0
429,5858208,0
414,5859484,0
366,5860760,0
377,5862032,0
381,5863308,0
390,5864584,0
309,5865860,0
251,5867132,0
251,5868408,0
239,5869684,0
253,5870960,0
296,5872232,0
338,5873508,0
352,5874784,0
380,5876060,0
388,5877332,0
389,5878608,0
357,5879884,0
345,5881160,0
347,5882432,0
326,5883708,0
309,5884984,0
277,5886260,0
249,5887532,0
209,5888808,0
216,5890084,0
280,5891360,0
341,5892632,0
321,5893908,0
335,5895184,0
370,5896460,0
379,5897732,0
391,5899008,0
364,5900284,0
313,5901560,0
324,5902832,0
337,5904108,0
327,5905384,0
276,5906660,0
244,5907932,0
215,5909208,0
254,5910484,0
273,5911760,0
278,5913032,0
327,5914308,0
371,5915584,0
400,5916860,0
384,5918132,0
380,5919408,0
348,5920684,0
361,5921960,0
346,5923232,0
323,5924508,0
287,5925784,0
257,5927060,0
238,5928332,0
218,5929608,0
245,5930884,0
278,5932160,0
323,5933432,0
347,5934708,0
367,5935984,0
372,5937260,0
395,5938532,0
410,5939808,0
375,5941084,0
334,5942360,0
328,5943632,0
311,5944908,0
271,5946184,0
256,5947460,0
237,5948732,0
229,5950008,0
255,5951284,0
284,5952560,0
322,5953832,0
348,5955108,0
380,5956384,0
382,5957660,0
407,5958932,0
405,5960208,0
342,5961484,0
345,5962764,0
359,5964032,0
325,5965308,0
249,5966584,0
228,5967860,0
226,5969132,0
241,5970408,0
253,5971684,0
236,5972960,0
293,5974232,0
342,5975508,0
336,5976784,0
342,5978060,0
373,5979332,0
355,5980608,0
327,5981884,0
353,5983160,0
326,5984432,0
283,5985708,0
248,5986984,0
263,5988260,0
246,5989532,0
254,5990808,0
305,5992084,0
350,5993360,0
343,5994632,0
370,5995908,0
376,5997184,0
346,5998460,0
379,5999732,0
401,6001008,0
386,6002284,0
359,6003560,0
319,6004832,0
275,6006108,0
264,6007384,0
249,6008660,0
239,6009932,0
270,6011208,0
306,6012484,0
348,6013760,0
366,6015032,0
394,6016308,0
375,6017584,0
378,6018860,0
359,6020132,0
359,6021408,0
339,6022684,0
328,6023960,0
307,6025232,0
283,6026508,0
269,6027784,0
235,6029060,0
237,6030332,0
281,6031608,0
323,6032884,0
353,6034160,0
370,6035432,0
378,6036708,0
366,6037984,0
383,6039260,0
391,6040532,0
353,6041808,0
305,6043084,0
286,6044360,0
307,6045632,0
311,6046908,0
272,6048184,0
216,6049460,0
208,6050732,0
262,6052008,0
337,6053284,0
376,6054560,0
398,6055832,0
394,6057108,0
369,6058384,0
378,6059660,0
370,6060932,0
342,6062208,0
313,6063484,0
294,6064760,0
272,6066032,0
270,6067308,0
261,6068584,0
239,6069860,0
261,6071132,0
299,6072408,0
334,6073684,0
363,6074960,0
391,6076232,0
378,6077508,0
368,6078784,0
357,6080060,0
341,6081332,0
338,6082608,0
320,6083884,0
301,6085160,0
267,6086432,0
257,6087708,0
251,6088984,0
257,6090260,0
277,6091532,0
317,6092816,0
350,6094084,0
362,6095360,0
361,6096632,0
360,6097908,0
383,6099184,0
371,6100460,0
345,6101732,0
370,6103008,0
344,6104284,0
298,6105560,0
235,6106832,0
252,6108108,0
245,6109384,0
255,6110660,0
286,6111932,0
299,6113208,0
331,6114484,0
367,6115760,0
378,6117032,0
379,6118308,0
384,6119584,0
339,6120860,0
319,6122132,0
378,6123408,0
366,6124684,0
265,6125960,0
236,6127232,0
255,6128508,0
239,6129784,0
260,6131060,0
295,6132332,0
340,6133608,0
358,6134884,0
376,6136160,0
373,6137432,0
373,6138708,0
368,6139984,0
349,6141260,0
348,6142532,0
327,6143808,0
307,6145084,0
274,6146360,0
260,6147632,0
245,6148908,0
248,6150184,0
275,6151460,0
304,6152732,0
336,6154008,0
347,6155284,0
369,6156560,0
372,6157832,0
379,6159108,0
359,6160388,0
354,6161660,0
349,6162932,0
335,6164208,0
302,6165484,0
259,6166760,0
258,6168032,0
234,6169308,0
255,6170584,0
283,6171860,0
316,6173132,0
343,6174408,0
371,6175684,0
378,6176960,0
379,6178232,0
373,6179508,0
347,6180784,0
338,6182060,0
338,6183332,0
311,6184608,0
288,6185884,0
277,6187160,0
268,6188432,0
217,6189708,0
267,6190984,0
301,6192260,0
283,6193532,0
345,6194808,0
401,6196084,0
382,6197360,0
372,6198632,0
355,6199908,0
353,6201184,0
352,6202460,0
345,6203732,0
309,6205008,0
279,6206284,0
276,6207560,0
246,6208832,0
234,6210108,0
265,6211384,0
301,6212660,0
335,6213932,0
360,6215208,0
380,6216484,0
373,6217760,0
379,6219032,0
368,6220308,0
348,6221584,0
329,6222864,0
319,6224132,0
300,6225408,0
269,6226684,0
268,6227960,0
243,6229232,0
254,6230508,0
278,6231784,0
309,6233060,0
341,6234332,0
381,6235608,0
405,6236884,0
391,6238160,0
368,6239432,0
334,6240708,0
338,6241984,0
347,6243260,0
307,6244532,0
281,6245808,0
266,6247084,0
263,6248360,0
248,6249632,0
261,6250908,0
295,6252184,0
327,6253460,0
348,6254732,0
373,6256008,0
378,6257284,0
373,6258560,0
380,6259832,0
352,6261108,0
329,6262384,0
326,6263660,0
321,6264932,0
267,6266208,0
257,6267484,0
246,6268760,0
257,6270032,0
253,6271308,0
296,6272584,0
345,6273860,0
376,6275132,0
366,6276408,0
368,6277684,0
389,6278960,0
366,6280232,0
350,6281508,0
349,6282784,0
323,6284060,0
282,6285332,0
263,6286608,0
272,6287884,0
253,6289160,0
249,6290440,0
267,6291708,0
300,6292984,0
347,6294260,0
375,6295532,0
389,6296808,0
354,6298084,0
371,6299360,0
370,6300632,0
356,6301908,0
336,6303184,0
342,6304460,0
309,6305732,0
257,6307008,0
227,6308284,0
224,6309560,0
268,6310832,0
297,6312108,0
319,6313384,0
345,6314660,0
377,6315932,0
379,6317208,0
391,6318484,0
382,6319760,0
343,6321032,0
319,6322308,0
327,6323584,0
306,6324860,0
283,6326132,0
274,6327408,0
249,6328684,0
243,6329960,0
260,6331232,0
293,6332508,0
356,6333784,0
372,6335060,0
368,6336332,0
348,6337608,0
372,6338884,0
389,6340160,0
357,6341432,0
338,6342708,0
325,6343984,0
302,6345260,0
270,6346532,0
263,6347808,0
242,6349084,0
248,6350360,0
274,6351632,0
310,6352912,0
343,6354184,0
358,6355460,0
357,6356732,0
368,6358008,0
416,6359284,0
367,6360560,0
332,6361832,0
324,6363108,0
323,6364384,0
297,6365660,0
267,6366932,0
262,6368208,0
223,6369484,0
257,6370760,0
313,6372032,0
341,6373308,0
323,6374584,0
343,6375860,0
369,6377132,0
376,6378408,0
389,6379684,0
360,6380960,0
345,6382232,0
330,6383508,0
303,6384784,0
276,6386060,0
268,6387332,0
266,6388608,0
244,6389884,0
269,6391160,0
302,6392432,0
328,6393708,0
345,6394984,0
402,6396260,0
378,6397532,0
352,6398808,0
348,6400084,0
338,6401360,0
338,6402632,0
335,6403908,0
311,6405184,0
278,6406460,0
270,6407732,0
242,6409008,0
244,6410284,0
277,6411560,0
310,6412832,0
347,6414108,0
358,6415384,0
379,6416660,0
371,6417932,0
381,6419208,0
355,6420488,0
316,6421760,0
332,6423032,0
343,6424308,0
320,6425584,0
270,6426860,0
272,6428132,0
242,6429408,0
267,6430684,0
278,6431960,0
300,6433232,0
342,6434508,0
388,6435784,0
380,6437060,0
363,6438332,0
373,6439608,0
343,6440884,0
327,6442160,0
323,6443432,0
306,6444708,0
282,6445984,0
273,6447260,0
254,6448532,0
251,6449808,0
292,6451084,0
307,6452360,0
326,6453632,0
343,6454908,0
363,6456184,0
366,6457460,0
376,6458732,0
372,6460008,0
355,6461284,0
339,6462560,0
329,6463832,0
310,6465108,0
284,6466384,0
257,6467660,0
237,6468932,0
246,6470208,0
276,6471484,0
283,6472760,0
351,6474032,0
384,6475308,0
376,6476584,0
365,6477860,0
373,6479132,0
368,6480408,0
345,6481684,0
334,6482960,0
303,6484232,0
295,6485508,0
274,6486784,0
264,6488060,0
232,6489332,0
261,6490608,0
300,6491884,0
317,6493160,0
337,6494432,0
363,6495708,0
367,6496984,0
371,6498260,0
394,6499532,0
378,6500808,0
335,6502084,0
326,6503360,0
304,6504632,0
277,6505908,0
264,6507184,0
258,6508460,0
241,6509732,0
270,6511008,0
302,6512284,0
340,6513560,0
359,6514832,0
360,6516108,0
346,6517384,0
370,6518660,0
392,6519932,0
367,6521208,0
345,6522484,0
340,6523760,0
303,6525032,0
256,6526308,0
254,6527584,0
251,6528860,0
243,6530132,0
275,6531408,0
305,6532684,0
345,6533960,0
353,6535232,0
374,6536508,0
360,6537784,0
391,6539060,0
374,6540332,0
344,6541608,0
335,6542884,0
322,6544160,0
296,6545432,0
264,6546708,0
268,6547984,0
239,6549260,0
247,6550540,0
281,6551808,0
325,6553084,0
354,6554360,0
365,6555632,0
355,6556908,0
353,6558184,0
385,6559460,0
393,6560732,0
331,6562008,0
334,6563284,0
325,6564560,0
295,6565832,0
263,6567108,0
272,6568384,0
219,6569660,0
226,6570932,0
285,6572208,0
328,6573484,0
367,6574760,0
394,6576032,0
364,6577308,0
369,6578584,0
366,6579860,0
348,6581132,0
352,6582408,0
341,6583684,0
305,6584960,0
269,6586232,0
262,6587508,0
248,6588784,0
252,6590060,0
270,6591332,0
292,6592608,0
351,6593884,0
374,6595160,0
368,6596432,0
370,6597708,0
376,6598984,0
382,6600260,0
353,6601532,0
335,6602808,0
318,6604084,0
304,6605360,0
267,6606632,0
256,6607908,0
244,6609184,0
248,6610460,0
287,6611732,0
322,6613008,0
340,6614284,0
366,6615560,0
373,6616832,0
358,6618108,0
368,6619384,0
360,6620660,0
344,6621932,0
337,6623208,0
311,6624484,0
286,6625760,0
259,6627032,0
294,6628308,0
270,6629584,0
240,6630860,0
266,6632132,0
326,6633408,0
350,6634684,0
373,6635960,0
373,6637232,0
369,6638508,0
370,6639784,0
367,6641060,0
346,6642332,0
330,6643608,0
319,6644884,0
278,6646160,0
243,6647432,0
229,6648708,0
252,6649984,0
272,6651260,0
307,6652532,0
348,6653808,0
366,6655084,0
372,6656360,0
357,6657632,0
371,6658908,0
372,6660184,0
359,6661460,0
362,6662732,0
323,6664008,0
285,6665284,0
270,6666560,0
251,6667832,0
238,6669108,0
255,6670384,0
274,6671660,0
313,6672932,0
359,6674208,0
371,6675484,0
372,6676760,0
364,6678032,0
370,6679308,0
382,6680588,0
361,6681860,0
317,6683132,0
302,6684408,0
289,6685684,0
253,6686960,0
272,6688232,0
256,6689508,0
245,6690784,0
277,6692060,0
337,6693332,0
352,6694608,0
370,6695884,0
372,6697160,0
397,6698432,0
386,6699708,0
334,6700984,0
335,6702260,0
320,6703532,0
294,6704808,0
273,6706084,0
290,6707360,0
271,6708632,0
241,6709908,0
263,6711184,0
296,6712460,0
331,6713732,0
354,6715008,0
376,6716284,0
373,6717560,0
377,6718832,0
368,6720108,0
336,6721384,0
325,6722660,0
332,6723932,0
326,6725208,0
275,6726484,0
270,6727760,0
254,6729032,0
258,6730308,0
272,6731584,0
303,6732860,0
332,6734132,0
349,6735408,0
369,6736684,0
367,6737960,0
366,6739232,0
367,6740508,0
360,6741784,0
349,6743060,0
322,6744332,0
290,6745608,0
265,6746884,0
260,6748160,0
239,6749432,0
277,6750708,0
302,6751984,0
324,6753260,0
302,6754532,0
355,6755808,0
371,6757084,0
379,6758360,0
387,6759632,0
357,6760908,0
347,6762184,0
317,6763460,0
304,6764732,0
287,6766008,0
307,6767284,0
277,6768560,0
214,6769832,0
232,6771108,0
301,6772384,0
324,6773660,0
348,6774932,0
385,6776208,0
386,6777484,0
375,6778760,0
368,6780032,0
350,6781308,0
341,6782584,0
329,6783860,0
306,6785132,0
266,6786408,0
252,6787684,0
240,6788960,0
260,6790232,0
297,6791508,0
302,6792784,0
322,6794060,0
365,6795332,0
388,6796608,0
374,6797884,0
384,6799160,0
366,6800432,0
334,6801708,0
334,6802984,0
322,6804260,0
294,6805532,0
254,6806808,0
264,6808084,0
241,6809360,0
239,6810640,0
280,6811908,0
330,6813184,0
360,6814460,0
380,6815732,0
374,6817008,0
365,6818284,0
369,6819560,0
349,6820832,0
334,6822108,0
347,6823384,0
324,6824660,0
306,6825932,0
266,6827208,0
245,6828484,0
228,6829760,0
254,6831032,0
284,6832308,0
324,6833584,0
355,6834860,0
399,6836132,0
395,6837408,0
375,6838684,0
348,6839960,0
345,6841232,0
337,6842508,0
324,6843784,0
308,6845060,0
274,6846332,0
273,6847608,0
252,6848884,0
243,6850160,0
277,6851432,0
306,6852708,0
324,6853984,0
354,6855260,0
380,6856532,0
375,6857808,0
383,6859084,0
372,6860360,0
325,6861632,0
351,6862908,0
361,6864184,0
311,6865460,0
259,6866732,0
261,6868008,0
237,6869284,0
248,6870560,0
274,6871832,0
315,6873108,0
337,6874384,0
376,6875660,0
389,6876932,0
373,6878216,0
358,6879484,0
342,6880760,0
327,6882032,0
341,6883308,0
322,6884584,0
288,6885860,0
258,6887132,0
253,6888408,0
249,6889684,0
279,6890960,0
274,6892232,0
318,6893508,0
361,6894784,0
400,6896060,0
394,6897332,0
373,6898608,0
351,6899884,0
347,6901160,0
371,6902432,0
336,6903708,0
293,6904984,0
263,6906260,0
261,6907532,0
249,6908808,0
245,6910084,0
267,6911360,0
300,6912632,0
334,6913908,0
357,6915184,0
379,6916460,0
377,6917732,0
374,6919008,0
359,6920284,0
337,6921560,0
344,6922832,0
341,6924108,0
316,6925384,0
271,6926660,0
262,6927932,0
233,6929208,0
239,6930484,0
273,6931760,0
309,6933032,0
354,6934308,0
379,6935584,0
377,6936860,0
351,6938132,0
370,6939408,0
338,6940688,0
329,6941960,0
349,6943232,0
374,6944508,0
290,6945784,0
240,6947060,0
288,6948332,0
271,6949608,0
222,6950884,0
257,6952160,0
317,6953432,0
307,6954708,0
356,6955984,0
447,6957260,0
451,6958532,0
358,6959808,0
327,6961084,0
321,6962360,0
279,6963632,0
339,6964908,0
299,6966184,0
284,6967460,0
257,6968732,0
269,6970008,0
247,6971284,0
219,6972560,0
223,6973832,0
376,6975108,0
523,6976384,0
472,6977660,0
317,6978932,0
263,6980208,0
352,6981484,0
362,6982760,0
373,6984032,0
443,6985308,0
272,6986584,0
137,6987860,0
171,6989132,0
238,6990408,0
298,6991684,0
266,6992960,0
304,6994232,0
428,6995508,0
383,6996784,0
301,6998060,0
366,6999332,0
514,7000608,0
429,7001884,0
210,7003160,1
172,7004432,1
301,7005708,1
500,7006984,1
328,7008264,1
239,7009532,1
237,7010808,1
197,7012084,1
315,7013360,1
542,7014632,1
493,7015908,1
334,7017184,1
362,7018460,1
359,7019732,1
347,7021008,1
355,7022284,1
376,7023560,1
289,7024832,1
348,7026108,1
514,7027384,1
319,7028660,1
32,7029848,1
158,7031124,1
221,7032400,1
328,7033672,1
263,7034948,1
248,7036224,1
393,7037500,1
415,7038772,1
396,7040048,1
323,7041324,1
323,7042600,1
349,7043872,1
393,7045148,1
273,7046424,1
276,7047700,1
261,7048972,1
204,7050256,1
237,7051524,1
375,7052800,1
362,7054072,1
303,7055348,1
321,7056624,1
315,7057900,1
344,7059172,1
405,7060448,1
387,7061724,1
413,7063000,1
338,7064272,1
286,7065548,1
270,7066824,1
273,7068100,1
125,7069372,1
172,7070648,1
312,7071924,1
345,7073200,1
343,7074472,1
375,7075748,1
387,7077024,1
385,7078300,1
381,7079572,1
369,7080848,1
353,7082124,1
359,7083400,1
309,7084672,1
264,7085948,1
260,7087224,1
243,7088500,1
208,7089772,1
251,7091048,1
287,7092324,1
327,7093600,1
342,7094872,1
375,7096148,1
378,7097424,1
392,7098700,1
384,7099972,1
359,7101248,1
350,7102524,1
345,7103800,1
339,7105072,1
283,7106348,1
234,7107624,1
216,7108900,1
246,7110172,1
265,7111448,1
265,7112724,1
330,7114000,1
365,7115272,1
371,7116548,1
376,7117828,1
416,7119100,1
387,7120372,1
342,7121648,1
299,7122924,1
323,7124200,1
319,7125472,1
280,7126748,1
258,7128024,1
239,7129300,1
227,7130572,1
270,7131848,1
325,7133124,1
359,7134400,1
359,7135672,1
361,7136948,1
363,7138224,1
371,7139500,1
355,7140772,1
355,7142048,1
366,7143324,1
351,7144600,1
300,7145872,1
248,7147148,1
237,7148424,1
226,7149700,1
240,7150972,1
282,7152248,1
347,7153524,1
342,7154800,1
372,7156072,1
378,7157348,1
378,7158624,1
374,7159900,1
380,7161172,1
366,7162448,1
325,7163724,1
296,7165000,1
293,7166272,1
254,7167548,1
199,7168824,1
224,7170100,1
303,7171372,1
301,7172648,1
340,7173924,1
354,7175200,1
380,7176472,1
390,7177748,1
400,7179024,1
383,7180304,1
345,7181572,1
339,7182848,1
323,7184124,1
291,7185400,1
258,7186672,1
247,7187948,1
243,7189224,1
229,7190500,1
256,7191772,1
303,7193048,1
345,7194324,1
368,7195600,1
385,7196872,1
390,7198148,1
396,7199424,1
386,7200700,1
368,7201972,1
360,7203248,1
317,7204524,1
270,7205800,1
219,7207072,1
237,7208348,1
248,7209624,1
272,7210900,1
270,7212172,1
295,7213448,1
333,7214724,1
354,7216000,1
373,7217272,1
427,7218548,1
414,7219824,1
358,7221100,1
353,7222372,1
360,7223648,0
304,7224924,0
299,7226200,0
271,7227472,0
235,7228748,0
197,7230024,0
189,7231300,0
247,7232572,0
266,7233848,0
279,7235124,0
304,7236400,0
319,7237672,0
319,7238948,0
339,7240224,0
335,7241500,0
336,7242772,0
335,7244048,0
327,7245324,0
280,7246600,0
247,7247880,0
241,7249148,0
267,7250424,0
311,7251700,0
330,7252972,0
367,7254248,0
387,7255524,0
388,7256800,0
371,7258072,0
414,7259348,0
377,7260624,0
350,7261900,0
361,7263172,0
322,7264448,0
279,7265724,0
297,7267000,0
271,7268272,0
238,7269548,0
263,7270824,0
297,7272100,0
374,7273372,0
385,7274648,0
375,7275924,0
410,7277200,0
408,7278472,0
312,7279748,0
334,7281024,0
395,7282300,0
304,7283572,0
293,7284848,0
329,7286124,0
333,7287400,0
276,7288672,0
169,7289948,0
219,7291224,0
346,7292500,0
412,7293772,0
299,7295048,0
386,7296324,0
348,7297600,0
388,7298872,0
367,7300148,0
251,7301424,0
432,7302700,0
212,7303972,0
313,7305248,0
276,7306524,0
352,7307800,0
299,7309072,0
265,7310352,0
180,7311624,1
270,7312900,1
432,7314172,1
412,7315448,1
467,7316724,1
556,7318000,1
406,7319272,1
357,7320548,1
465,7321824,1
362,7323100,1
276,7324372,1
259,7325648,1
215,7326924,1
271,7328200,1
230,7329472,1
313,7330748,1
274,7332024,1
255,7333300,1
317,7334572,1
369,7335848,1
380,7337124,1
335,7338400,1
307,7339672,1
444,7340948,1
451,7342224,1
285,7343500,1
322,7344772,1
296,7346048,1
280,7347324,1
333,7348600,1
128,7349872,1
228,7351148,1
341,7352424,1
319,7353700,1
318,7354972,1
354,7356248,1
319,7357524,1
280,7358800,1
415,7360072,1
602,7361348,1
429,7362624,1
121,7363900,1
319,7365172,1
206,7366448,1
197,7367724,1
182,7369000,1
190,7370272,1
274,7371548,1
340,7372824,1
311,7374100,1
391,7375372,1
368,7376648,1
358,7377928,1
395,7379200,1
415,7380472,1
390,7381748,1
343,7383024,1
223,7384300,1
306,7385572,1
408,7386848,1
260,7388124,1
121,7389400,1
213,7390672,1
276,7391948,1
404,7393224,1
324,7394500,1
329,7395772,1
345,7397048,1
369,7398324,1
408,7399600,1
381,7400872,1
346,7402148,1
332,7403424,1
330,7404700,1
274,7405972,1
256,7407248,1
248,7408524,1
213,7409800,1
250,7411072,1
272,7412348,1
338,7413624,1
373,7414900,1
378,7416172,1
365,7417448,1
394,7418724,1
378,7420000,1
375,7421272,1
369,7422548,1
321,7423824,1
289,7425100,1
284,7426372,1
278,7427648,1
232,7428924,1
235,7430200,1
262,7431472,1
267,7432748,1
362,7434024,1
352,7435300,1
370,7436572,1
354,7437848,1
393,7439124,1
375,7440400,1
326,7441672,1
325,7442948,1
326,7444224,1
317,7445500,1
333,7446772,1
272,7448048,1
228,7449324,1
214,7450600,1
270,7451872,1
305,7453148,1
342,7454424,1
390,7455700,1
376,7456972,1
392,7458248,1
381,7459524,1
348,7460800,1
353,7462072,1
342,7463348,1
296,7464624,1
292,7465900,1
294,7467172,1
249,7468448,1
212,7469724,1
186,7471000,1
276,7472272,1
330,7473548,1
343,7474824,1
374,7476100,1
378,7477372,1
405,7478648,1
417,7479924,1
391,7481200,1
333,7482472,1
345,7483748,1
320,7485024,1
255,7486300,1
245,7487572,1
228,7488848,1
221,7490124,1
246,7491400,1
292,7492672,1
332,7493948,1
370,7495224,1
388,7496500,1
386,7497772,1
390,7499048,1
389,7500324,1
360,7501600,1
345,7502872,1
328,7504148,1
294,7505424,1
226,7506700,1
233,7507980,1
248,7509248,1
276,7510524,1
270,7511800,1
289,7513072,1
325,7514348,1
398,7515624,1
406,7516900,1
391,7518172,1
377,7519448,1
399,7520724,1
360,7522000,1
323,7523272,1
299,7524548,1
277,7525824,1
231,7527100,1
255,7528372,1
250,7529648,1
201,7530924,1
248,7532200,1
333,7533472,1
370,7534748,1
381,7536024,0
405,7537300,0
453,7538572,0
387,7539848,0
307,7541124,0
313,7542400,0
282,7543672,0
240,7544948,0
196,7546224,0
188,7547500,0
197,7548772,0
196,7550048,0
233,7551324,0
287,7552600,0
318,7553872,0
315,7555148,0
348,7556424,0
378,7557700,0
392,7558972,0
409,7560248,0
365,7561524,0
329,7562800,0
337,7564072,0
323,7565348,0
308,7566624,0
320,7567900,0
255,7569172,0
266,7570448,0
281,7571724,0
304,7573000,0
350,7574272,0
441,7575548,0
385,7576824,0
325,7578100,0
391,7579372,0
383,7580648,0
324,7581924,0
348,7583200,0
330,7584472,0
283,7585748,0
292,7587024,0
335,7588300,0
248,7589572,0
201,7590848,0
291,7592124,0
365,7593400,0
365,7594672,0
380,7595948,0
425,7597224,0
381,7598500,0
337,7599772,0
320,7601048,0
338,7602324,0
385,7603600,0
365,7604872,0
249,7606148,0
249,7607424,0
229,7608700,0
158,7609972,0
295,7611248,0
385,7612524,0
304,7613800,0
425,7615072,0
358,7616348,0
432,7617624,0
380,7618900,0
292,7620172,0
221,7621448,0
432,7622724,0
335,7624000,0
238,7625272,0
332,7626548,0
471,7627824,0
297,7629100,0
300,7630372,0
146,7631648,1
194,7632924,1
308,7634200,1
230,7635472,1
436,7636748,1
640,7638028,1
530,7639300,1
418,7640572,1
293,7641848,1
393,7643124,1
314,7644400,1
318,7645672,1
319,7646948,1
301,7648224,1
177,7649500,1
216,7650772,1
349,7652048,1
292,7653324,1
223,7654600,1
391,7655872,1
468,7657148,1
357,7658424,1
292,7659700,1
375,7660972,1
459,7662248,1
442,7663524,1
208,7664800,1
269,7666072,1
199,7667348,1
147,7668624,1
282,7669900,1
243,7671172,1
164,7672448,1
429,7673724,1
473,7675000,1
289,7676272,1
365,7677548,1
405,7678824,1
407,7680100,1
373,7681372,1
319,7682648,1
194,7683924,1
320,7685200,1
357,7686472,1
218,7687748,1
82,7688940,1
191,7690212,1
287,7691488,1
293,7692764,1
562,7694040,1
339,7695312,1
316,7696588,1
435,7697864,1
435,7699140,1
336,7700412,1
298,7701688,1
336,7702964,1
342,7704240,1
357,7705512,1
291,7706788,1
223,7708064,1
193,7709340,1
183,7710612,1
215,7711888,1
313,7713164,1
349,7714440,1
371,7715712,1
366,7716988,1
387,7718264,1
433,7719540,1
359,7720812,1
363,7722088,1
271,7723364,1
332,7724640,1
358,7725912,1
173,7727188,1
282,7728464,1
407,7729740,1
293,7731012,1
251,7732288,1
296,7733564,1
279,7734840,1
348,7736112,1
345,7737388,1
360,7738664,1
415,7739940,1
400,7741212,1
362,7742488,1
285,7743764,1
72,7744952,1
238,7746228,1
590,7747504,1
400,7748780,1
184,7750052,1
216,7751328,1
276,7752604,1
279,7753880,1
368,7755152,1
427,7756428,1
368,7757704,1
328,7758980,1
430,7760252,1
333,7761528,1
304,7762804,1
301,7764080,1
296,7765352,1
261,7766628,1
258,7767904,1
246,7769180,1
209,7770452,1
270,7771728,1
312,7773004,1
336,7774280,1
373,7775552,1
394,7776828,1
385,7778104,1
398,7779380,1
401,7780652,1
358,7781928,1
324,7783204,1
304,7784480,1
290,7785752,1
264,7787028,1
259,7788304,1
200,7789584,1
231,7790852,1
288,7792128,1
330,7793404,1
322,7794680,1
364,7795952,1
405,7797228,1
372,7798504,1
383,7799780,1
378,7801052,1
402,7802328,1
356,7803604,1
302,7804880,1
250,7806152,1
244,7807428,1
274,7808704,1
244,7809980,1
229,7811252,1
257,7812528,1
302,7813804,1
346,7815080,1
381,7816352,1
414,7817628,1
386,7818904,1
364,7820180,1
387,7821452,1
368,7822728,1
336,7824004,1
301,7825280,1
266,7826552,1
241,7827828,1
202,7829104,1
219,7830380,1
278,7831652,1
300,7832928,1
312,7834204,1
355,7835480,1
384,7836752,1
388,7838028,1
398,7839304,1
378,7840580,1
379,7841852,1
384,7843128,1
316,7844404,1
288,7845680,1
254,7846952,1
240,7848228,1
227,7849504,1
224,7850780,1
261,7852052,1
305,7853328,1
353,7854604,1
401,7855880,1
419,7857160,1
354,7858428,1
373,7859704,1
368,7860980,1
375,7862252,1
366,7863528,1
311,7864804,1
246,7866080,1
225,7867352,1
240,7868628,1
228,7869904,1
249,7871180,1
293,7872452,1
321,7873728,1
340,7875004,1
408,7876280,1
421,7877552,1
431,7878828,1
368,7880104,1
331,7881380,1
328,7882652,1
326,7883928,1
299,7885204,1
289,7886480,1
255,7887752,1
231,7889028,1
229,7890304,1
250,7891580,1
277,7892852,1
350,7894128,1
404,7895404,1
393,7896680,1
362,7897952,1
358,7899228,1
341,7900504,1
368,7901780,1
401,7903052,1
375,7904328,1
293,7905604,1
250,7906880,1
234,7908152,1
213,7909428,0
234,7910704,0
307,7911980,0
311,7913252,0
324,7914528,0
322,7915804,0
297,7917080,0
298,7918352,0
316,7919632,0
312,7920904,0
284,7922180,0
299,7923452,0
302,7924728,0
267,7926004,0
254,7927280,0
239,7928552,0
211,7929828,0
233,7931104,0
293,7932380,0
331,7933652,0
376,7934928,0
416,7936204,0
411,7937480,0
371,7938752,0
372,7940028,0
382,7941304,0
374,7942580,0
352,7943852,0
347,7945128,0
307,7946404,0
277,7947680,0
243,7948952,0
242,7950228,0
298,7951504,0
346,7952780,0
367,7954052,0
375,7955328,0
419,7956604,0
456,7957880,0
415,7959152,0
409,7960428,0
373,7961704,0
364,7962980,0
341,7964252,0
300,7965528,0
261,7966804,0
244,7968080,0
215,7969352,0
219,7970628,0
267,7971904,0
318,7973180,0
344,7974452,0
378,7975728,0
406,7977004,0
403,7978280,0
390,7979552,0
350,7980828,0
320,7982104,0
338,7983380,0
291,7984652,0
261,7985928,0
273,7987208,0
250,7988480,0
198,7989752,0
242,7991028,0
284,7992304,0
330,7993580,0
333,7994852,0
336,7996128,0
368,7997404,0
365,7998680,0
364,7999952,0
352,8001228,0
352,8002504,0
357,8003780,0
335,8005052,0
258,8006328,0
251,8007604,0
254,8008880,0
231,8010152,0
243,8011428,0
296,8012704,0
336,8013980,0
361,8015252,0
375,8016528,0
372,8017804,0
379,8019080,0
360,8020352,0
346,8021628,0
350,8022904,0
315,8024180,0
295,8025452,0
268,8026728,0
268,8028004,0
258,8029280,0
235,8030552,0
276,8031828,0
318,8033104,0
341,8034380,0
358,8035652,0
384,8036928,0
387,8038204,0
387,8039480,0
361,8040752,0
340,8042028,0
330,8043304,0
324,8044580,0
295,8045852,0
265,8047128,0
261,8048404,0
248,8049680,0
257,8050952,0
283,8052228,0
318,8053504,0
346,8054780,0
372,8056052,0
391,8057328,0
394,8058604,0
393,8059880,0
349,8061152,0
337,8062428,0
366,8063704,0
313,8064980,0
252,8066252,0
243,8067528,0
269,8068804,0
224,8070080,0
235,8071352,0
277,8072628,0
363,8073904,0
389,8075180,0
380,8076452,0
353,8077728,0
401,8079004,0
391,8080280,0
346,8081552,0
342,8082828,0
327,8084104,0
298,8085380,0
264,8086652,0
256,8087928,0
237,8089204,0
233,8090480,0
278,8091752,0
307,8093028,0
350,8094304,0
384,8095580,0
388,8096852,0
373,8098128,0
393,8099404,0
362,8100680,0
339,8101952,0
311,8103228,0
293,8104504,0
295,8105780,0
307,8107052,0
277,8108328,0
237,8109604,0
244,8110880,0
288,8112152,0
330,8113428,0
341,8114704,0
363,8115980,0
383,8117260,0
378,8118528,0
391,8119804,0
367,8121080,0
334,8122352,0
314,8123628,0
307,8124904,0
281,8126180,0
251,8127452,0
247,8128728,0
237,8130004,0
262,8131280,0
297,8132552,0
340,8133828,0
363,8135104,0
381,8136380,0
396,8137652,0
395,8138928,0
351,8140204,0
326,8141480,0
338,8142752,0
329,8144028,0
295,8145304,0
273,8146580,0
268,8147852,0
246,8149128,0
220,8150404,0
284,8151680,0
355,8152952,0
349,8154228,0
363,8155504,0
385,8156780,0
366,8158052,0
368,8159328,0
361,8160604,0
350,8161880,0
336,8163152,0
319,8164428,0
293,8165704,0
264,8166980,0
268,8168252,0
237,8169528,0
236,8170804,0
267,8172080,0
312,8173352,0
341,8174628,0
402,8175904,0
405,8177180,0
406,8178452,0
359,8179728,0
307,8181004,0
327,8182280,0
355,8183552,0
311,8184828,0
278,8186104,0
262,8187380,0
263,8188652,0
232,8189928,0
255,8191204,0
303,8192480,0
349,8193752,0
356,8195028,0
371,8196304,0
374,8197580,0
385,8198852,0
378,8200128,0
345,8201404,0
325,8202680,0
343,8203952,0
316,8205228,0
263,8206504,0
257,8207780,0
259,8209052,0
241,8210328,0
252,8211604,0
309,8212880,0
346,8214152,0
359,8215428,0
337,8216704,0
383,8217980,0
403,8219252,0
365,8220528,0
341,8221804,0
337,8223080,0
323,8224352,0
294,8225628,0
266,8226904,0
262,8228180,0
240,8229452,0
254,8230728,0
276,8232004,0
309,8233280,0
346,8234552,0
383,8235828,0
384,8237104,0
373,8238380,0
374,8239652,0
366,8240928,0
345,8242204,0
330,8243480,0
318,8244752,0
283,8246028,0
273,8247308,0
272,8248580,0
255,8249852,0
251,8251128,0
260,8252404,0
304,8253680,0
348,8254952,0
393,8256228,0
391,8257504,0
375,8258780,0
371,8260052,0
341,8261328,0
339,8262604,0
336,8263880,0
322,8265152,0
278,8266428,0
270,8267704,0
249,8268980,0
231,8270252,0
265,8271528,0
317,8272804,0
341,8274080,0
371,8275352,0
385,8276628,0
372,8277904,0
373,8279180,0
356,8280452,0
338,8281728,0
341,8283004,0
327,8284280,0
283,8285552,0
272,8286828,0
276,8288104,0
233,8289380,0
241,8290652,0
272,8291928,0
324,8293204,0
351,8294480,0
379,8295752,0
383,8297028,0
370,8298304,0
373,8299580,0
355,8300852,0
341,8302128,0
343,8303404,0
325,8304680,0
280,8305952,0
253,8307228,0
263,8308504,0
239,8309780,0
244,8311052,0
290,8312328,0
340,8313604,0
346,8314880,0
374,8316152,0
384,8317428,0
385,8318704,0
353,8319980,0
346,8321252,0
346,8322528,0
347,8323804,0
302,8325080,0
260,8326352,0
262,8327628,0
272,8328904,0
252,8330180,0
250,8331452,0
280,8332728,0
346,8334004,0
384,8335280,0
383,8336552,0
370,8337828,0
370,8339104,0
357,8340380,0
340,8341652,0
347,8342928,0
336,8344204,0
299,8345480,0
242,8346752,0
256,8348028,0
279,8349304,0
255,8350580,0
257,8351852,0
309,8353128,0
352,8354404,0
365,8355680,0
370,8356952,0
391,8358228,0
381,8359504,0
348,8360780,0
331,8362052,0
335,8363328,0
318,8364604,0
290,8365880,0
261,8367152,0
276,8368428,0
256,8369704,0
254,8370980,0
268,8372252,0
311,8373528,0
356,8374804,0
379,8376080,0
387,8377360,0
356,8378628,0
357,8379904,0
360,8381180,0
354,8382452,0
351,8383728,0
311,8385004,0
276,8386280,0
259,8387552,0
252,8388828,0
247,8390104,0
280,8391380,0
292,8392652,0
307,8393928,0
355,8395204,0
386,8396480,0
379,8397752,0
383,8399028,0
370,8400304,0
333,8401580,0
336,8402852,0
341,8404128,0
337,8405404,0
262,8406680,0
257,8407952,0
228,8409228,0
238,8410504,0
266,8411780,0
292,8413052,0
337,8414328,0
382,8415604,0
396,8416880,0
381,8418152,0
377,8419428,0
364,8420704,0
338,8421980,0
340,8423252,0
324,8424528,0
292,8425804,0
263,8427080,0
260,8428352,0
235,8429628,0
247,8430904,0
286,8432180,0
327,8433452,0
351,8434728,0
366,8436004,0
391,8437280,0
374,8438552,0
363,8439828,0
364,8441104,0
336,8442380,0
332,8443652,0
296,8444936,0
276,8446204,0
299,8447480,0
266,8448752,0
227,8450028,0
252,8451304,0
286,8452580,0
323,8453852,0
355,8455128,0
372,8456404,0
375,8457680,0
398,8458952,0
381,8460228,0
358,8461504,0
341,8462780,0
309,8464052,0
281,8465328,0
269,8466604,0
262,8467880,0
248,8469152,0
253,8470428,0
275,8471704,0
307,8472980,0
342,8474252,0
369,8475528,0
378,8476804,0
375,8478080,0
383,8479352,0
361,8480628,0
341,8481904,0
328,8483180,0
304,8484452,0
306,8485728,0
288,8487004,0
244,8488280,0
230,8489552,0
281,8490828,0
292,8492104,0
343,8493380,0
348,8494652,0
371,8495928,0
369,8497204,0
368,8498480,0
372,8499752,0
349,8501028,0
337,8502304,0
326,8503580,0
308,8504852,0
285,8506128,0
282,8507408,0
259,8508680,0
218,8509952,0
245,8511228,0
289,8512504,0
333,8513780,0
363,8515052,0
387,8516328,0
376,8517604,0
379,8518880,0
377,8520152,0
365,8521428,0
369,8522704,0
329,8523980,0
269,8525252,0
250,8526528,0
263,8527804,0
252,8529080,0
244,8530352,0
271,8531628,0
301,8532904,0
336,8534180,0
361,8535452,0
383,8536728,0
381,8538004,0
375,8539280,0
344,8540552,0
336,8541828,0
370,8543104,0
355,8544380,0
295,8545652,0
263,8546928,0
261,8548204,0
247,8549480,0
251,8550752,0
270,8552028,0
304,8553304,0
343,8554580,0
367,8555852,0
376,8557128,0
378,8558404,0
383,8559680,0
356,8560952,0
339,8562228,0
331,8563504,0
314,8564780,0
286,8566052,0
268,8567328,0
261,8568604,0
237,8569880,0
262,8571152,0
290,8572428,0
331,8573704,0
342,8574984,0
363,8576252,0
379,8577528,0
399,8578804,0
384,8580080,0
367,8581352,0
334,8582628,0
314,8583904,0
302,8585180,0
286,8586452,0
258,8587728,0
183,8589004,0
242,8590280,0
316,8591552,0
345,8592828,0
311,8594104,0
353,8595380,0
371,8596652,0
373,8597928,0
380,8599204,0
371,8600480,0
346,8601752,0
351,8603028,0
329,8604304,0
273,8605580,0
244,8606852,0
246,8608128,0
248,8609404,0
288,8610680,0
301,8611952,0
324,8613228,0
340,8614504,0
361,8615780,0
364,8617052,0
363,8618328,0
375,8619604,0
352,8620880,0
341,8622152,0
340,8623428,0
323,8624704,0
285,8625980,0
265,8627252,0
269,8628528,0
238,8629804,0
244,8631080,0
284,8632352,0
336,8633628,0
365,8634904,0
382,8636180,0
369,8637456,0
365,8638728,0
371,8640004,0
353,8641280,0
346,8642552,0
332,8643828,0
301,8645104,0
296,8646380,0
290,8647652,0
237,8648928,0
210,8650204,0
250,8651480,0
280,8652752,0
342,8654028,0
390,8655304,0
384,8656580,0
372,8657852,0
381,8659128,0
368,8660404,0
345,8661680,0
347,8662952,0
333,8664228,0
302,8665504,0
265,8666780,0
255,8668052,0
247,8669328,0
250,8670604,0
279,8671880,0
291,8673152,0
329,8674428,0
366,8675704,0
375,8676980,0
369,8678252,0
378,8679528,0
379,8680804,0
355,8682080,0
355,8683352,0
312,8684628,0
288,8685904,0
258,8687180,0
254,8688452,0
233,8689728,0
251,8691004,0
293,8692280,0
323,8693552,0
334,8694828,0
382,8696104,0
392,8697380,0
367,8698652,0
379,8699928,0
366,8701204,0
338,8702480,0
314,8703752,0
307,8705036,0
269,8706304,0
257,8707580,0
257,8708852,0
255,8710128,0
273,8711404,0
307,8712680,0
335,8713952,0
326,8715228,0
384,8716504,0
379,8717780,0
375,8719052,0
375,8720328,0
348,8721604,0
355,8722880,0
332,8724152,0
297,8725428,0
257,8726704,0
259,8727980,0
245,8729252,0
234,8730528,0
276,8731804,0
312,8733080,0
339,8734352,0
369,8735628,0
386,8736904,0
378,8738180,0
380,8739452,0
365,8740728,0
345,8742004,0
344,8743280,0
326,8744552,0
291,8745828,0
256,8747104,0
250,8748380,0
235,8749652,0
258,8750928,0
274,8752204,0
309,8753480,0
357,8754752,0
407,8756028,0
386,8757304,0
369,8758580,0
364,8759852,0
351,8761128,0
348,8762404,0
339,8763680,0
314,8764952,0
268,8766228,0
252,8767504,0
249,8768780,0
245,8770052,0
259,8771328,0
289,8772604,0
325,8773880,0
351,8775152,0
400,8776428,0
398,8777704,0
365,8778980,0
345,8780252,0
350,8781528,0
351,8782804,0
348,8784080,0
302,8785352,0
258,8786628,0
246,8787904,0
241,8789180,0
242,8790452,0
273,8791728,0
308,8793004,0
350,8794280,0
368,8795552,0
376,8796828,0
362,8798104,0
379,8799380,0
361,8800652,0
342,8801928,0
339,8803204,0
350,8804480,0
326,8805752,0
269,8807028,0
253,8808304,0
197,8809580,0
245,8810852,0
296,8812128,0
342,8813404,0
361,8814680,0
348,8815952,0
349,8817228,0
407,8818504,0
414,8819780,0
309,8821052,0
299,8822328,0
307,8823604,0
366,8824880,0
330,8826152,0
270,8827428,0
243,8828704,0
201,8829980,0
231,8831252,0
329,8832528,0
367,8833804,0
371,8835084,0
319,8836352,0
386,8837628,0
360,8838904,0
432,8840180,0
355,8841452,0
367,8842728,0
321,8844004,0
237,8845280,0
241,8846552,0
295,8847828,0
287,8849104,0
189,8850380,0
242,8851652,0
321,8852928,0
362,8854204,0
437,8855480,0
381,8856752,0
339,8858028,0
398,8859304,0
356,8860580,0
247,8861852,0
266,8863128,0
364,8864404,0
347,8865680,0
300,8866952,0
317,8868228,0
232,8869504,0
168,8870780,0
313,8872052,0
364,8873328,0
340,8874604,0
268,8875880,0
317,8877152,0
424,8878428,0
309,8879704,0
260,8880980,0
269,8882252,1
449,8883528,1
585,8884804,1
307,8886080,1
263,8887352,1
257,8888628,1
197,8889904,1
310,8891180,1
396,8892452,1
464,8893728,1
460,8895004,1
422,8896280,1
445,8897552,1
457,8898828,1
295,8900104,1
309,8901380,1
322,8902652,1
285,8903928,1
286,8905204,1
319,8906480,1
238,8907752,1
187,8909028,1
199,8910304,1
266,8911580,1
281,8912852,1
420,8914128,1
364,8915404,1
335,8916680,1
318,8917952,1
363,8919228,1
346,8920504,1
289,8921780,1
351,8923052,1
400,8924328,1
320,8925604,1
352,8926880,1
262,8928152,1
67,8929344,1
122,8930620,1
184,8931892,1
321,8933168,1
401,8934444,1
353,8935720,1
424,8936992,1
377,8938268,1
391,8939544,1
358,8940820,1
317,8942092,1
368,8943368,1
402,8944648,1
327,8945920,1
233,8947192,1
241,8948468,1
200,8949744,1
239,8951020,1
211,8952292,1
276,8953568,1
462,8954844,1
409,8956120,1
339,8957392,1
284,8958668,1
359,8959944,1
402,8961220,1
423,8962492,1
346,8963768,1
323,8965044,1
156,8966320,1
233,8967592,1
312,8968868,1
240,8970144,1
347,8971420,1
292,8972692,1
285,8973968,1
364,8975244,1
273,8976520,1
327,8977792,1
390,8979068,1
332,8980344,1
343,8981620,1
449,8982892,1
413,8984168,1
361,8985444,1
271,8986720,1
127,8987992,1
151,8989268,1
243,8990544,1
210,8991820,1
299,8993092,1
400,8994368,1
338,8995644,1
423,8996920,1
639,8998192,1
432,8999468,1
212,9000744,1
151,9002020,1
280,9003292,1
506,9004568,1
354,9005844,1
223,9007120,1
270,9008392,1
243,9009668,1
346,9010944,1
281,9012220,1
225,9013492,1
336,9014768,1
291,9016044,1
260,9017320,1
321,9018592,1
502,9019868,1
546,9021144,1
368,9022420,1
320,9023692,1
303,9024968,1
216,9026244,1
202,9027520,1
287,9028792,1
283,9030068,1
218,9031344,1
299,9032620,1
353,9033892,1
278,9035168,1
321,9036444,1
480,9037720,1
396,9038992,1
415,9040268,1
408,9041544,1
246,9042820,1
182,9044092,1
368,9045368,1
439,9046644,1
279,9047920,1
238,9049192,1
207,9050468,1
252,9051744,1
335,9053020,1
361,9054292,1
330,9055568,1
300,9056844,1
340,9058120,1
357,9059392,1
385,9060668,1
494,9061944,1
434,9063220,1
241,9064492,1
80,9065684,1
229,9066960,1
504,9068232,1
302,9069508,1
177,9070784,1
237,9072060,1
362,9073332,1
340,9074608,1
315,9075884,1
374,9077160,1
396,9078432,1
387,9079708,1
360,9080984,1
333,9082260,1
279,9083532,1
257,9084808,1
385,9086084,1
341,9087360,1
208,9088632,1
224,9089908,1
201,9091184,1
265,9092460,1
262,9093732,1
350,9095008,1
462,9096284,1
508,9097560,1
359,9098832,1
300,9100108,1
405,9101384,1
362,9102660,1
225,9103932,1
409,9105208,1
360,9106484,1
133,9107760,1
266,9109032,1
341,9110308,1
161,9111584,1
223,9112860,1
298,9114132,1
375,9115408,1
439,9116688,1
366,9117960,1
374,9119232,1
393,9120508,1
302,9121784,1
349,9123060,1
530,9124332,1
449,9125608,1
256,9126884,1
143,9128160,1
130,9129432,1
182,9130708,1
245,9131984,1
310,9133260,1
333,9134532,1
364,9135808,1
346,9137084,1
341,9138360,1
505,9139632,1
465,9140908,1
348,9142184,1
340,9143460,1
352,9144732,1
240,9146008,1
200,9147284,1
193,9148560,1
209,9149832,1
308,9151108,1
312,9152384,1
271,9153660,1
374,9154932,1
410,9156208,1
399,9157484,1
384,9158760,1
420,9160032,1
400,9161308,1
372,9162584,1
365,9163860,1
229,9165132,1
175,9166408,1
180,9167684,1
217,9168960,1
304,9170232,1
219,9171508,1
220,9172784,1
297,9174060,1
346,9175332,1
468,9176608,1
639,9177884,1
460,9179160,1
284,9180432,1
239,9181708,1
390,9182984,1
339,9184264,1
255,9185532,1
245,9186808,1
282,9188084,1
189,9189360,1
194,9190632,1
274,9191908,1
270,9193184,1
266,9194460,1
334,9195732,1
490,9197008,1
464,9198284,1
414,9199560,1
427,9200832,1
362,9202108,1
298,9203384,1
333,9204660,1
247,9205932,1
200,9207208,1
297,9208484,1
233,9209760,1
197,9211032,1
210,9212308,1
297,9213584,1
354,9214860,1
447,9216132,1
479,9217408,1
385,9218684,1
363,9219960,1
341,9221232,1
396,9222508,1
385,9223784,1
331,9225060,1
241,9226332,1
233,9227608,1
209,9228884,1
203,9230160,1
310,9231432,1
310,9232708,1
311,9233984,1
355,9235260,1
382,9236532,1
368,9237808,1
381,9239084,1
356,9240360,1
424,9241632,1
360,9242908,1
331,9244184,1
279,9245460,1
245,9246736,1
155,9248008,1
209,9249284,1
383,9250560,1
353,9251832,1
278,9253108,1
298,9254384,1
449,9255660,1
374,9256932,1
337,9258208,1
376,9259484,1
335,9260760,1
336,9262032,1
373,9263308,1
328,9264584,1
235,9265860,1
181,9267132,1
333,9268408,1
404,9269684,1
257,9270960,1
201,9272232,1
313,9273508,1
365,9274784,1
450,9276060,1
363,9277332,1
263,9278608,1
351,9279884,1
362,9281160,1
374,9282432,1
399,9283708,1
316,9284984,1
197,9286260,1
194,9287532,1
313,9288808,1
288,9290084,1
255,9291360,1
260,9292632,1
339,9293908,1
307,9295184,1
334,9296460,1
395,9297732,1
393,9299008,1
500,9300284,1
403,9301560,1
372,9302832,1
243,9304108,1
346,9305384,1
377,9306660,1
138,9307932,1
191,9309208,1
243,9310484,1
358,9311760,1
256,9313032,1
204,9314316,1
343,9315584,1
370,9316860,1
377,9318132,1
415,9319408,1
405,9320684,1
366,9321960,1
349,9323232,1
322,9324508,1
231,9325784,1
341,9327060,1
287,9328332,1
85,9329524,1
291,9330800,1
286,9332072,1
271,9333348,1
414,9334624,1
407,9335900,1
397,9337172,1
394,9338448,1
345,9339724,1
390,9341000,1
392,9342272,1
286,9343548,1
349,9344824,1
270,9346100,1
201,9347372,1
230,9348648,1
236,9349924,1
244,9351200,1
261,9352472,1
362,9353748,1
351,9355024,1
458,9356304,1
381,9357572,1
338,9358848,1
368,9360124,1
329,9361400,1
468,9362672,1
423,9363948,1
191,9365224,1
212,9366500,1
196,9367772,1
282,9369048,1
227,9370324,1
245,9371600,1
225,9372872,1
332,9374148,1
440,9375424,1
433,9376700,1
393,9377972,1
282,9379248,1
454,9380524,1
370,9381800,1
328,9383072,1
351,9384348,1
332,9385624,1
325,9386900,1
214,9388172,1
206,9389448,1
244,9390724,1
292,9392000,1
223,9393272,1
260,9394548,1
443,9395824,1
442,9397100,1
386,9398372,1
378,9399648,1
359,9400924,1
235,9402200,1
407,9403472,1
345,9404748,1
291,9406024,1
349,9407300,1
423,9408572,1
190,9409848,1
161,9411124,1
204,9412400,1
290,9413672,1
307,9414948,1
376,9416224,1
363,9417500,1
405,9418772,1
355,9420048,1
349,9421324,1
440,9422600,1
384,9423880,1
245,9425148,1
253,9426424,1
321,9427700,1
196,9428972,1
185,9430248,1
255,9431524,1
281,9432800,1
329,9434072,1
376,9435348,1
412,9436624,1
352,9437900,1
377,9439172,1
446,9440448,1
382,9441724,1
330,9443000,1
261,9444272,1
456,9445548,1
286,9446824,1
215,9448100,1
195,9449372,1
203,9450648,1
252,9451924,1
296,9453200,1
334,9454472,1
346,9455748,1
304,9457024,1
344,9458300,1
471,9459572,1
467,9460848,1
313,9462124,1
347,9463400,1
440,9464672,1
315,9465948,1
171,9467224,1
225,9468500,1
210,9469772,1
226,9471048,1
305,9472324,1
302,9473600,1
270,9474872,1
397,9476148,1
503,9477424,1
428,9478700,1
354,9479972,1
331,9481248,1
304,9482524,1
322,9483800,1
307,9485072,1
319,9486352,1
272,9487624,1
180,9488900,1
155,9490172,1
260,9491448,1
352,9492724,1
351,9494000,1
339,9495272,1
480,9496548,1
428,9497824,1
306,9499100,1
363,9500372,1
273,9501648,1
341,9502924,1
339,9504200,1
292,9505472,1
350,9506748,1
264,9508024,1
198,9509300,1
177,9510572,1
232,9511848,1
354,9513124,1
343,9514400,1
313,9515672,1
400,9516948,1
404,9518224,1
399,9519500,1
391,9520772,1
370,9522048,1
348,9523324,1
316,9524600,1
265,9525872,1
220,9527148,1
256,9528424,1
282,9529700,1
241,9530972,1
258,9532248,1
249,9533524,1
339,9534800,1
470,9536072,1
420,9537348,1
408,9538624,1
436,9539900,1
321,9541172,1
314,9542448,1
327,9543724,1
295,9545000,1
224,9546272,1
360,9547548,1
262,9548824,1
100,9550100,1
308,9551372,1
304,9552648,1
251,9553928,1
304,9555200,1
435,9556472,1
353,9557748,1
355,9559024,1
399,9560300,1
453,9561572,1
369,9562848,1
320,9564124,1
314,9565400,1
274,9566672,1
172,9567948,1
230,9569224,1
247,9570500,1
243,9571772,1
295,9573048,1
413,9574324,1
382,9575600,1
377,9576872,1
415,9578148,1
396,9579424,1
343,9580700,1
356,9581972,1
414,9583248,1
303,9584524,1
237,9585800,1
253,9587072,1
244,9588348,1
183,9589624,1
187,9590900,1
314,9592172,1
291,9593448,1
338,9594724,1
472,9596000,1
410,9597272,1
411,9598548,1
409,9599824,1
370,9601100,1
325,9602372,1
340,9603648,1
346,9604924,1
267,9606200,1
164,9607472,1
219,9608748,1
178,9610024,1
241,9611300,1
313,9612572,1
311,9613848,1
455,9615124,1
446,9616400,1
330,9617672,1
419,9618948,1
409,9620224,1
365,9621500,1
332,9622772,1
263,9624048,1
286,9625324,1
290,9626600,1
256,9627872,1
285,9629148,1
252,9630424,1
175,9631700,1
283,9632972,1
301,9634248,1
240,9635524,1
505,9636800,1
534,9638072,1
332,9639348,1
385,9640624,1
406,9641900,1
339,9643172,1
284,9644448,1
268,9645724,1
261,9647000,1
226,9648272,1
212,9649548,1
207,9650824,1
229,9652100,1
352,9653372,1
421,9654648,1
367,9655924,1
368,9657200,1
367,9658472,1
393,9659748,1
331,9661024,1
332,9662300,1
399,9663572,1
368,9664848,1
247,9666124,1
178,9667400,1
281,9668672,1
313,9669948,1
209,9671224,1
318,9672500,1
428,9673772,1
282,9675048,1
357,9676324,1
328,9677600,1
374,9678872,1
396,9680148,1
364,9681424,1
247,9682700,1
364,9683980,1
350,9685248,1
192,9686524,1
247,9687800,1
298,9689072,1
372,9690348,1
394,9691624,1
166,9692900,1
247,9694172,1
389,9695448,1
374,9696724,1
397,9698000,1
411,9699272,1
362,9700548,1
343,9701824,1
333,9703100,1
267,9704372,1
327,9705648,1
338,9706924,1
252,9708200,1
157,9709472,1
224,9710748,1
255,9712024,1
323,9713300,1
320,9714572,1
409,9715848,1
420,9717124,1
377,9718400,1
398,9719672,1
396,9720948,1
341,9722224,1
277,9723500,1
290,9724772,1
337,9726048,1
307,9727324,1
231,9728600,1
265,9729872,1
263,9731148,1
197,9732424,1
277,9733700,1
338,9734972,1
392,9736248,1
394,9737524,1
350,9738800,1
331,9740072,1
347,9741348,1
496,9742624,1
346,9743900,1
304,9745172,1
293,9746448,1
201,9747724,1
274,9749000,1
263,9750272,1
251,9751548,1
225,9752824,1
335,9754100,1
368,9755372,1
406,9756648,1
403,9757924,1
381,9759200,1
350,9760472,1
338,9761748,1
399,9763024,1
376,9764300,1
253,9765572,1
233,9766848,1
169,9768124,1
237,9769400,1
279,9770672,1
300,9771948,1
253,9773224,1
398,9774500,1
416,9775772,1
273,9777048,1
352,9778324,1
541,9779600,1
473,9780872,1
317,9782148,1
238,9783424,1
256,9784700,1
258,9785972,1
234,9787248,1
172,9788524,1
255,9789800,1
329,9791072,1
318,9792348,1
341,9793624,1
319,9794900,1
337,9796172,1
370,9797448,1
403,9798724,1
456,9800000,1
315,9801272,1
317,9802548,1
506,9803824,1
371,9805100,1
220,9806372,1
223,9807648,1
190,9808924,1
162,9810200,1
238,9811472,1
269,9812748,1
327,9814028,1
375,9815300,1
380,9816572,1
357,9817848,1
417,9819124,1
415,9820400,1
269,9821672,1
389,9822948,1
508,9824224,1
245,9825500,1
202,9826772,1
245,9828048,1
242,9829324,1
230,9830600,1
192,9831872,1
327,9833148,1
411,9834424,1
357,9835700,1
378,9836972,1
395,9838248,1
379,9839524,1
387,9840800,1
351,9842072,1
317,9843348,1
332,9844624,1
350,9845900,1
207,9847172,1
265,9848448,1
259,9849724,1
237,9851000,1
300,9852272,1
245,9853548,1
280,9854824,1
342,9856100,1
400,9857372,1
429,9858648,1
401,9859924,1
365,9861200,1
314,9862472,1
362,9863748,1
271,9865024,1
289,9866300,1
329,9867572,1
228,9868848,1
188,9870124,1
293,9871400,1
287,9872672,1
358,9873948,1
402,9875224,1
332,9876500,1
325,9877772,1
392,9879048,1
374,9880324,1
391,9881600,1
361,9882872,1
317,9884148,1
369,9885424,1
283,9886700,1
226,9887972,1
201,9889248,1
212,9890524,1
232,9891800,1
300,9893072,1
397,9894348,1
422,9895624,1
393,9896900,1
341,9898172,1
328,9899448,1
487,9900724,1
373,9902000,1
249,9903272,1
374,9904548,1
282,9905824,1
210,9907100,1
197,9908372,1
188,9909648,1
233,9910924,1
368,9912200,1
332,9913472,1
294,9914748,1
387,9916024,1
436,9917300,1
326,9918572,1
419,9919848,1
447,9921124,1
287,9922400,1
260,9923672,1
392,9924948,1
344,9926224,1
264,9927500,1
235,9928772,1
220,9930048,1
249,9931324,1
347,9932600,1
360,9933872,1
249,9935148,1
234,9936424,1
399,9937700,1
517,9938972,1
324,9940248,1
363,9941524,1
350,9942800,1
344,9944080,1
334,9945348,1
263,9946624,1
238,9947900,1
202,9949172,1
226,9950448,1
294,9951724,1
248,9953000,1
413,9954272,1
330,9955548,1
284,9956824,1
339,9958100,1
491,9959372,1
423,9960648,1
398,9961924,1
355,9963200,1
316,9964472,1
312,9965748,1
265,9967024,1
211,9968300,1
235,9969572,1
309,9970848,1
252,9972124,1
191,9973400,1
285,9974672,1
515,9975948,1
496,9977224,1
321,9978500,1
301,9979772,1
347,9981048,1
297,9982324,1
354,9983600,1
434,9984872,1
256,9986148,1
188,9987424,1
231,9988700,1
277,9989972,1
264,9991248,1
204,9992524,1
334,9993800,1
412,9995072,1
343,9996348,1
384,9997624,1
381,9998900,1
434,10000172,1
353,10001532,1
305,10002892,1
354,10004252,1
406,10005612,1
239,10006972,1
189,10008332,1
257,10009692,1
245,10011052,1
215,10012412,1
302,10013772,1
375,10015132,1
383,10016492,1
438,10017852,1
462,10019212,1
310,10020572,1
310,10021932,1
351,10023292,1
305,10024652,1
292,10026012,1
249,10027372,1
179,10028732,1
164,10030096,1
327,10031452,1
363,10032812,1
328,10034172,1
348,10035532,1
385,10036892,1
493,10038252,1
391,10039612,1
304,10040972,1
350,10042332,1
343,10043692,1
331,10045052,1
271,10046412,1
279,10047772,1
215,10049132,1
76,10050408,1
267,10051768,1
218,10053128,1
412,10054488,1
582,10055848,1
386,10057208,1
411,10058568,1
280,10059928,1
301,10061288,1
410,10062648,1
399,10064008,1
370,10065368,1
243,10066728,1
196,10068088,1
189,10069448,1
206,10070808,1
307,10072168,1
313,10073528,1
286,10074888,1
373,10076248,1
405,10077608,1
393,10078968,1
368,10080328,1
413,10081688,1
355,10083048,1
277,10084408,1
327,10085768,1
336,10087128,1
159,10088488,1
252,10089848,1
242,10091208,1
222,10092568,1
396,10093928,1
389,10095288,1
333,10096656,1
375,10098008,1
401,10099368,1
353,10100728,1
340,10102088,1
376,10103448,1
372,10104808,1
295,10106168,1
196,10107528,1
192,10108888,1
204,10110248,1
220,10111608,1
191,10112968,1
406,10114328,1
495,10115688,1
445,10117048,1
381,10118408,1
353,10119768,1
367,10121128,1
336,10122488,1
357,10123848,1
299,10125208,1
256,10126568,1
258,10127928,1
206,10129288,1
176,10130648,1
217,10132008,1
338,10133368,1
361,10134728,1
386,10136088,1
418,10137448,1
386,10138808,1
389,10140168,1
356,10141528,1
361,10142888,1
330,10144248,1
304,10145608,1
260,10146968,1
213,10148328,1
219,10149688,1
247,10151048,1
349,10152408,1
424,10153768,1
281,10155128,1
332,10156488,1
346,10157848,1
352,10159208,1
412,10160568,1
387,10161928,1
321,10163288,1
345,10164648,1
287,10166008,1
207,10167368,1
298,10168728,1
320,10170088,1
157,10171448,1
182,10172808,1
387,10174168,1
457,10175528,1
387,10176888,1
350,10178248,1
427,10179608,1
353,10180968,1
280,10182328,1
329,10183696,1
401,10185048,1
239,10186408,1
162,10187768,1
478,10189128,1
240,10190488,1
91,10191764,1
246,10193124,1
358,10194484,1
340,10195844,1
387,10197204,1
405,10198564,1
251,10199924,1
372,10201284,1
540,10202644,1
386,10204004,1
296,10205364,1
271,10206724,1
320,10208084,1
164,10209444,1
118,10210804,1
218,10212164,1
286,10213524,1
363,10214884,1
382,10216244,1
401,10217604,1
521,10218964,1
327,10220324,1
358,10221684,1
383,10223044,1
365,10224404,1
327,10225764,1
239,10227124,1
193,10228484,1
182,10229844,1
263,10231204,1
338,10232564,1
340,10233924,1
331,10235284,1
361,10236644,1
309,10238004,1
371,10239364,1
362,10240724,1
357,10242084,1
461,10243444,1
295,10244804,1
227,10246164,1
261,10247524,1
269,10248884,1
214,10250248,1
246,10251604,1
313,10252964,1
274,10254324,1
374,10255684,1
422,10257044,1
383,10258404,1
389,10259764,1
454,10261124,1
363,10262484,1
270,10263844,1
250,10265204,1
243,10266564,1
374,10267924,1
296,10269284,1
199,10270644,1
135,10272004,1
184,10273364,1
418,10274724,1
455,10276084,1
474,10277444,1
442,10278804,1
383,10280164,1
345,10281524,1
265,10282884,1
406,10284244,1
259,10285604,1
219,10286964,1
214,10288324,1
209,10289684,1
246,10291044,1
292,10292404,1
308,10293764,1
351,10295124,1
348,10296484,1
235,10297844,1
550,10299204,1
567,10300564,1
287,10301924,1
331,10303284,1
409,10304644,1
357,10306004,1
163,10307364,1
188,10308724,1
204,10310084,1
210,10311444,1
281,10312804,1
390,10314164,1
400,10315524,1
407,10316884,1
310,10318244,1
335,10319604,1
342,10320964,1
352,10322324,1
348,10323684,1
335,10325044,1
323,10326404,1
302,10327764,1
322,10329124,1
135,10330484,1
78,10331760,1
430,10333120,1
461,10334480,1
404,10335840,1
380,10337200,1
336,10338560,1
356,10339920,1
376,10341280,1
415,10342640,1
307,10344000,1
222,10345360,1
283,10346720,1
325,10348080,1
107,10349440,1
203,10350800,1
358,10352160,1
331,10353520,1
336,10354880,1
373,10356240,1
439,10357600,1
319,10358960,1
400,10360320,1
462,10361680,1
356,10363040,1
296,10364400,1
176,10365760,1
361,10367120,1
309,10368480,1
210,10369840,1
148,10371200,1
294,10372560,1
344,10373920,1
336,10375280,1
308,10376640,1
400,10378000,1
408,10379360,1
418,10380720,1
400,10382080,1
334,10383440,1
306,10384800,1
270,10386160,1
265,10387520,1
223,10388880,1
145,10390240,1
264,10391600,1
413,10392960,1
333,10394320,1
369,10395680,1
388,10397040,1
390,10398400,1
393,10399760,1
369,10401120,1
346,10402480,1
305,10403840,1
244,10405200,1
302,10406560,1
322,10407920,1
245,10409280,1
213,10410640,1
197,10412000,1
289,10413360,1
392,10414720,1
402,10416080,1
416,10417440,1
426,10418800,1
392,10420160,1
247,10421520,1
408,10422880,1
451,10424240,1
88,10425512,1
228,10426872,1
416,10428232,1
151,10429592,1
163,10430952,1
257,10432312,1
359,10433672,1
414,10435032,1
427,10436392,1
352,10437752,1
386,10439112,1
400,10440472,1
333,10441832,1
325,10443192,1
387,10444552,1
245,10445912,1
291,10447272,1
275,10448632,1
113,10449992,1
202,10451352,1
217,10452712,1
412,10454072,1
425,10455432,1
363,10456792,1
442,10458152,1
442,10459512,1
420,10460872,1
278,10462232,1
316,10463592,1
393,10464952,1
243,10466320,1
171,10467672,1
208,10469032,1
219,10470392,1
400,10471752,1
332,10473112,1
187,10474472,1
328,10475832,1
404,10477192,1
417,10478552,1
397,10479912,1
410,10481272,1
325,10482632,1
364,10483992,1
349,10485352,1
288,10486712,1
174,10488072,1
306,10489432,1
202,10490792,1
164,10492152,1
356,10493512,1
370,10494872,1
312,10496232,1
390,10497592,1
482,10498952,1
426,10500312,1
348,10501672,1
497,10503032,1
369,10504392,1
119,10505752,1
187,10507112,1
237,10508472,1
243,10509832,1
167,10511192,1
322,10512552,1
452,10513912,1
332,10515272,1
400,10516632,1
438,10517992,1
357,10519352,1
368,10520712,1
364,10522072,1
260,10523432,1
320,10524792,1
397,10526152,1
174,10527512,1
220,10528872,1
245,10530232,1
294,10531592,1
314,10532952,1
277,10534312,1
418,10535672,1
374,10537032,1
294,10538392,1
351,10539752,1
488,10541112,1
380,10542472,1
294,10543832,1
355,10545192,1
263,10546552,1
243,10547912,1
233,10549272,1
231,10550632,1
343,10551992,1
231,10553360,1
266,10554712,1
310,10556072,1
360,10557432,1
521,10558792,1
472,10560152,1
311,10561512,1
302,10562872,1
334,10564232,1
314,10565592,1
245,10566952,1
250,10568312,1
238,10569672,1
196,10571032,1
276,10572392,1
297,10573752,1
329,10575112,1
491,10576472,1
474,10577832,1
378,10579192,1
332,10580552,1
309,10581912,1
390,10583272,1
453,10584632,1
376,10585992,1
102,10587352,1
125,10588712,1
150,10590072,1
226,10591432,1
416,10592792,1
357,10594152,1
146,10595512,1
457,10596872,1
559,10598232,1
460,10599592,1
393,10600952,1
294,10602312,1
317,10603672,1
296,10605032,1
248,10606392,1
233,10607752,1
299,10609112,1
190,10610472,1
227,10611832,1
338,10613192,1
390,10614552,1
385,10615912,1
373,10617272,1
374,10618632,1
355,10619992,1
405,10621352,1
413,10622712,1
313,10624072,1
263,10625432,1
240,10626792,1
322,10628152,1
240,10629512,1
213,10630872,1
192,10632232,1
273,10633592,1
401,10634952,1
439,10636312,1
377,10637672,1
354,10639032,1
391,10640400,1
332,10641752,1
346,10643112,1
227,10644472,1
286,10645832,1
467,10647192,1
291,10648552,1
246,10649912,1
221,10651272,1
205,10652632,1
360,10653992,1
425,10655352,1
362,10656712,1
253,10658072,1
339,10659432,1
420,10660792,1
387,10662152,1
227,10663512,1
319,10664872,1
425,10666232,1
222,10667592,1
263,10668952,1
215,10670312,1
246,10671672,1
271,10673032,1
289,10674392,1
435,10675752,1
433,10677112,1
342,10678472,1
407,10679832,1
325,10681192,1
356,10682552,1
293,10683912,1
283,10685272,1
468,10686632,1
213,10687992,1
190,10689352,1
239,10690712,1
269,10692072,1
235,10693432,1
245,10694792,1
433,10696152,1
389,10697512,1
396,10698872,1
400,10700232,1
411,10701592,1
371,10702952,1
367,10704312,1
280,10705672,1
189,10707032,1
202,10708392,1
139,10709752,1
181,10711112,1
390,10712472,1
417,10713832,1
342,10715192,1
379,10716552,1
416,10717912,1
353,10719272,1
333,10720632,1
423,10721992,1
361,10723352,1
315,10724712,1
319,10726072,1
200,10727440,1
289,10728792,1
225,10730152,1
221,10731512,1
222,10732872,1
324,10734232,1
429,10735592,1
316,10736952,1
363,10738312,1
298,10739672,1
316,10741032,1
522,10742392,1
538,10743752,1
273,10745112,1
322,10746472,1
272,10747832,1
108,10749192,1
98,10750468,1
182,10751828,1
435,10753188,1
343,10754548,1
371,10755908,1
381,10757268,1
319,10758628,1
442,10759988,1
457,10761348,1
363,10762708,1
329,10764068,1
251,10765428,1
208,10766788,1
355,10768148,1
320,10769508,1
200,10770868,1
163,10772228,1
249,10773588,1
317,10774948,1
415,10776308,1
378,10777668,1
441,10779028,1
418,10780388,1
346,10781748,1
351,10783108,1
372,10784468,1
308,10785828,1
275,10787188,1
226,10788548,1
165,10789908,1
296,10791268,1
239,10792628,1
325,10793996,1
347,10795348,1
373,10796708,1
513,10798068,1
509,10799428,1
424,10800788,1
321,10802148,1
218,10803508,1
295,10804868,1
274,10806228,1
294,10807588,1
176,10808948,1
179,10810308,1
248,10811668,1
290,10813028,1
339,10814388,1
367,10815748,1
397,10817108,1
435,10818468,1
433,10819828,1
231,10821188,1
353,10822548,1
484,10823908,1
363,10825268,1
242,10826628,1
309,10827988,1
348,10829348,1
238,10830708,1
138,10832068,1
299,10833428,1
248,10834788,1
286,10836148,1
417,10837508,1
387,10838868,1
394,10840228,1
378,10841588,1
428,10842948,1
369,10844308,1
129,10845668,1
243,10847028,1
283,10848388,1
254,10849748,1
335,10851108,1
230,10852468,1
322,10853828,1
287,10855188,1
391,10856548,1
469,10857908,1
439,10859268,1
383,10860628,1
347,10861988,1
338,10863348,1
301,10864708,1
220,10866068,1
215,10867428,1
326,10868788,1
175,10870148,1
275,10871508,1
418,10872868,1
240,10874228,1
284,10875588,1
422,10876948,1
459,10878308,1
410,10879668,1
356,10881036,1
329,10882388,1
319,10883748,1
302,10885108,1
238,10886468,1
257,10887828,1
315,10889188,1
364,10890548,1
59,10891824,1
267,10893184,1
368,10894544,1
346,10895904,1
351,10897264,1
486,10898624,1
397,10899984,1
448,10901344,1
373,10902704,1
237,10904064,1
214,10905424,1
216,10906784,1
265,10908144,1
245,10909504,1
270,10910864,1
330,10912224,1
361,10913584,1
270,10914944,1
378,10916304,1
378,10917664,1
483,10919024,1
410,10920384,1
287,10921744,1
326,10923104,1
300,10924464,1
