245,824,0
241,1304,0
215,1824,0
190,2352,0
188,2872,0
194,3396,0
202,3908,0
224,4432,0
244,4952,0
272,5484,0
316,6212,0
350,7232,0
369,8252,0
390,9272,0
389,10292,0
384,11400,0
389,12504,0
375,13608,0
351,14712,0
379,15820,0
372,16924,0
337,18028,0
283,19132,0
248,20240,0
243,21344,0
191,22448,0
191,23560,0
228,24660,0
288,25764,0
343,26868,0
368,27972,0
388,29080,0
383,30184,0
382,31288,0
390,32392,0
375,33500,0
354,34604,0
380,35708,0
373,36812,0
339,37920,0
285,39024,0
247,40128,0
245,41232,0
193,42340,0
199,43444,0
232,44548,0
287,45652,0
338,46760,0
361,47864,0
384,48968,0
386,50072,0
383,51180,0
388,52284,0
374,53388,0
354,54492,0
376,55600,0
374,56704,0
346,57808,0
294,58912,0
253,60020,0
243,61124,0
196,62228,0
189,63332,0
222,64440,0
274,65548,0
337,66648,0
359,67752,0
382,68860,0
388,69964,0
383,71068,0
390,72172,0
379,73280,0
359,74384,0
373,75488,0
384,76592,0
355,77700,0
296,78804,0
248,79908,0
236,81012,0
194,82120,0
188,83224,0
216,84328,0
268,85432,0
338,86540,0
362,87644,0
383,88748,0
390,89852,0
382,90960,0
389,92064,0
381,93168,0
361,94272,0
370,95380,0
376,96484,0
355,97588,0
306,98692,0
256,99800,0
244,100904,0
205,102092,0
194,103284,0
224,104472,0
277,105664,0
340,106852,0
368,108044,0
390,109232,0
387,110424,0
386,111612,0
385,112804,0
366,113992,0
364,115184,0
380,116372,0
358,117564,0
298,118752,0
249,119944,0
241,121132,0
192,122324,0
190,123512,0
233,124704,0
297,125892,0
346,127084,0
373,128272,0
387,129464,0
384,130652,0
385,131844,0
383,133032,0
368,134224,0
377,135412,0
374,136604,0
343,137792,0
291,138984,0
252,140172,0
243,141364,0
184,142552,0
190,143744,0
238,144932,0
312,146124,0
357,147312,0
379,148504,0
389,149692,0
381,150884,0
388,152072,0
381,153264,0
359,154452,0
378,155644,0
367,156832,0
336,158024,0
277,159212,0
247,160404,0
244,161592,0
197,162784,0
200,163972,0
246,165164,0
314,166352,0
349,167544,0
382,168732,0
390,169924,0
380,171112,0
390,172304,0
375,173492,0
354,174684,0
382,175872,0
371,177064,0
328,178252,0
269,179444,0
246,180632,0
220,181824,0
187,183012,0
208,184204,0
263,185392,0
333,186584,0
363,187772,0
390,188964,0
388,190152,0
382,191344,0
388,192532,0
372,193724,0
354,194912,0
382,196104,0
366,197292,0
312,198484,0
259,199672,0
248,200864,0
210,202052,0
190,203244,0
218,204432,0
274,205624,0
341,206812,0
368,208004,0
392,209192,0
388,210384,0
381,211572,0
383,212764,0
367,213952,0
360,215144,0
382,216332,0
363,217524,0
303,218712,0
249,219904,0
237,221092,0
197,222284,0
201,223472,0
237,224664,0
297,225852,0
345,227044,0
372,228232,0
391,229424,0
384,230612,0
385,231804,0
380,232992,0
364,234184,0
368,235372,0
375,236564,0
345,237752,0
291,238944,0
249,240132,0
244,241324,0
190,242512,0
196,243704,0
241,244892,0
310,246084,0
350,247272,0
374,248464,0
388,249652,0
385,250844,0
388,252032,0
378,253224,0
356,254412,0
377,255604,0
372,256792,0
337,257984,0
280,259172,0
247,260364,0
237,261552,0
188,262744,0
202,263932,0
252,265124,0
322,266312,0
355,267504,0
382,268692,0
388,269884,0
382,271072,0
388,272264,0
375,273452,0
354,274644,0
381,275832,0
370,277024,0
332,278212,0
271,279404,0
244,280592,0
223,281784,0
187,282972,0
207,284164,0
264,285352,0
336,286544,0
367,287732,0
384,288924,0
381,290112,0
381,291304,0
390,292492,0
375,293684,0
348,294872,0
381,296064,0
368,297252,0
317,298444,0
259,299632,0
245,300824,0
210,302012,0
192,303204,0
222,304392,0
276,305584,0
341,306772,0
364,307964,0
387,309152,0
384,310344,0
382,311532,0
387,312724,0
367,313912,0
356,315104,0
389,316292,0
364,317484,0
302,318672,0
251,319864,0
234,321052,0
199,322244,0
197,323432,0
234,324624,0
295,325812,0
346,327004,0
367,328192,0
389,329384,0
385,330572,0
384,331764,0
384,332952,0
365,334144,0
369,335332,0
379,336524,0
352,337712,0
292,338904,0
249,340092,0
241,341284,0
189,342472,0
193,343664,0
239,344852,0
308,346044,0
350,347232,0
374,348424,0
389,349612,0
381,350804,0
386,351992,0
387,353184,0
360,354372,0
375,355564,0
373,356752,0
343,357944,0
286,359132,0
248,360324,0
238,361512,0
183,362704,0
199,363892,0
248,365084,0
321,366272,0
351,367464,0
377,368656,0
382,369844,0
374,371032,0
392,372224,0
385,373412,0
356,374604,0
385,375792,0
367,376984,0
334,378172,0
277,379364,0
256,380552,0
234,381744,0
177,382932,0
201,384124,0
240,385312,0
325,386504,0
367,387692,0
383,388884,0
385,390072,0
381,391264,0
395,392452,0
385,393644,0
360,394832,0
389,396024,0
364,397212,0
290,398404,0
243,399592,0
249,400784,0
233,401972,0
204,403164,0
224,404352,0
260,405544,0
334,406732,0
365,407924,0
395,409112,0
377,410304,0
363,411492,0
389,412688,0
384,413872,0
366,415064,0
368,416252,0
353,417444,0
294,418632,0
264,419824,0
264,421012,0
200,422204,0
163,423392,1
221,424584,1
331,425772,1
377,426964,1
373,428152,1
384,429344,1
368,430532,1
368,431724,1
377,432912,1
378,434104,1
354,435292,1
347,436484,1
313,437672,1
275,438864,1
255,440052,1
265,441244,1
223,442432,1
214,443624,1
255,444812,1
317,446004,1
347,447192,1
374,448384,1
393,449572,1
385,450764,1
382,451952,1
362,453144,1
343,454332,1
368,455524,1
364,456720,1
335,457904,1
286,459092,1
250,460284,1
239,461472,1
190,462664,1
209,463852,1
289,465044,1
352,466232,1
348,467424,1
357,468612,1
363,469804,1
388,470992,1
395,472184,1
367,473372,1
350,474564,1
366,475752,1
361,476944,1
348,478132,1
303,479324,1
256,480512,1
240,481704,1
202,482892,1
215,484084,1
252,485272,1
321,486464,1
358,487652,1
382,488844,1
383,490032,1
385,491224,1
378,492412,1
354,493604,1
341,494792,1
362,495984,1
351,497172,1
317,498364,1
264,499552,1
258,500748,1
231,501932,1
203,503124,1
236,504312,1
307,505504,1
363,506692,1
363,507884,1
368,509072,1
374,510264,1
375,511452,1
376,512644,1
361,513832,1
330,515024,1
368,516212,1
377,517404,1
330,518592,1
276,519784,1
231,520972,1
177,522164,1
175,523352,1
231,524544,1
311,525732,1
364,526924,1
389,528112,1
394,529304,1
387,530492,1
395,531684,1
374,532872,1
329,534064,1
322,535252,1
368,536444,1
336,537632,1
288,538824,1
252,540012,1
258,541204,1
189,542392,1
197,543584,1
293,544780,1
376,545964,1
381,547152,1
370,548344,1
381,549532,1
381,550724,1
344,551912,1
338,553104,1
335,554292,1
390,555484,1
373,556672,1
326,557864,1
282,559052,1
253,560244,1
243,561432,1
178,562624,1
207,563812,1
252,565004,1
337,566192,1
370,567384,1
381,568572,1
406,569764,1
378,570952,1
381,572144,1
359,573332,1
341,574524,1
383,575712,1
365,576904,1
323,578092,1
250,579284,1
251,580472,1
241,581664,1
198,582852,1
217,584044,1
263,585232,1
338,586424,1
368,587612,1
384,588808,1
380,589992,1
371,591184,1
382,592372,1
373,593564,1
351,594752,1
378,595944,1
365,597132,1
330,598324,1
268,599512,1
255,600704,1
219,601892,1
194,603084,1
222,604272,1
272,605464,1
345,606652,1
377,607844,1
393,609032,1
383,610224,1
364,611412,1
366,612604,1
373,613792,1
354,614984,1
392,616172,1
348,617364,1
297,618552,1
249,619744,1
247,620932,1
215,622124,1
204,623312,1
243,624504,1
322,625692,1
357,626884,1
375,628072,1
366,629264,1
353,630452,1
372,631644,1
383,632840,1
355,634024,1
348,635212,1
373,636404,1
352,637592,1
296,638784,1
255,639972,1
255,641164,1
211,642352,1
207,643544,1
243,644732,1
319,645924,1
349,647112,1
374,648304,1
376,649492,1
373,650684,1
371,651872,1
372,653064,1
359,654252,1
381,655444,1
373,656632,1
340,657824,1
280,659012,1
237,660204,1
247,661392,1
206,662584,1
211,663772,1
252,664964,1
311,666152,1
359,667344,1
387,668532,1
386,669724,1
377,670912,1
379,672104,1
366,673292,1
345,674484,1
369,675672,1
367,676868,1
335,678052,1
282,679244,1
254,680432,1
243,681624,1
203,682812,1
215,684004,1
260,685192,1
332,686384,1
362,687572,1
382,688764,1
385,689952,1
377,691144,1
383,692332,1
362,693524,1
342,694712,1
373,695904,1
363,697092,1
322,698284,1
271,699472,1
256,700664,1
230,701852,1
198,703044,1
214,704232,1
267,705424,1
339,706612,1
372,707804,1
392,708992,1
384,710184,1
373,711372,1
376,712564,1
368,713752,1
351,714944,1
380,716132,1
356,717324,1
297,718512,1
255,719704,1
257,720892,1
221,722084,1
198,723272,1
232,724464,1
285,725652,1
348,726844,1
377,728032,1
397,729224,1
381,730412,1
374,731604,1
370,732792,1
348,733984,1
351,735172,1
378,736364,1
357,737552,1
303,738744,1
261,739932,1
251,741124,1
206,742312,1
208,743504,1
248,744692,1
309,745884,1
348,747072,1
361,748264,1
384,749452,1
380,750644,1
382,751832,1
375,753024,1
358,754212,1
361,755404,1
373,756592,1
346,757784,1
299,758972,1
261,760164,1
248,761352,1
196,762544,1
202,763732,1
246,764924,1
316,766112,1
358,767304,1
370,768492,1
386,769684,1
381,770872,1
389,772064,1
384,773252,1
362,774444,1
382,775632,1
379,776824,1
342,778012,1
283,779204,1
247,780392,1
235,781584,1
189,782772,1
199,783964,1
249,785152,1
320,786344,1
357,787532,1
383,788724,1
392,789912,1
387,791104,1
399,792292,1
383,793484,1
359,794672,1
385,795864,1
375,797052,1
333,798244,1
266,799432,1
236,800624,1
211,801812,1
176,803004,1
202,804192,1
261,805384,1
330,806572,1
361,807764,1
386,808952,1
387,810144,1
385,811332,1
392,812524,1
379,813712,1
360,814904,1
384,816092,1
366,817284,1
321,818472,1
260,819664,1
244,820852,1
202,822044,1
177,823232,1
209,824424,1
272,825612,1
338,826804,1
368,827992,1
397,829184,1
389,830372,0
381,831564,0
380,832752,0
365,833944,0
363,835132,0
389,836324,0
365,837512,0
304,838704,0
253,839892,0
241,841084,0
195,842272,0
185,843464,0
224,844652,0
289,845844,0
344,847032,0
368,848224,0
389,849412,0
385,850604,0
390,851792,0
387,852984,0
368,854172,0
372,855364,0
381,856552,0
352,857744,0
292,858932,0
246,860124,0
238,861312,0
187,862504,0
196,863692,0
236,864884,0
304,866072,0
348,867264,0
369,868452,0
391,869644,0
382,870832,0
389,872024,0
384,873212,0
364,874404,0
380,875592,0
375,876784,0
337,877972,0
282,879164,0
249,880352,0
239,881544,0
181,882732,0
194,883924,0
244,885112,0
316,886304,0
353,887492,0
381,888684,0
394,889872,0
386,891064,0
391,892252,0
374,893444,0
347,894632,0
381,895824,0
374,897012,0
333,898204,0
268,899392,0
240,900584,0
220,901772,0
185,902964,0
206,904152,0
272,905344,0
342,906532,0
361,907724,0
387,908912,0
384,910104,0
378,911292,0
391,912484,0
377,913672,0
357,914864,0
379,916052,0
364,917244,0
316,918432,0
260,919624,0
242,920812,0
209,922004,0
183,923192,0
208,924384,0
270,925572,0
340,926764,0
374,927952,0
406,929144,0
397,930332,0
386,931524,0
381,932712,0
358,933904,0
356,935092,0
382,936284,0
363,937472,0
308,938664,0
255,939852,0
240,941044,0
194,942232,0
189,943424,0
226,944612,0
285,945804,0
337,946992,0
365,948184,0
393,949372,0
388,950564,0
388,951752,0
390,952944,0
368,954132,0
370,955324,0
380,956512,0
350,957704,0
294,958892,0
250,960084,0
238,961272,0
184,962464,0
187,963652,0
235,964844,0
306,966032,0
350,967224,0
375,968412,0
386,969604,0
382,970792,0
389,971984,0
385,973172,0
365,974364,0
380,975552,0
376,976744,0
338,977936,0
285,979124,0
247,980312,0
238,981504,0
183,982692,0
190,983884,0
240,985072,0
319,986264,0
358,987452,0
382,988644,0
391,989832,0
384,991024,0
391,992212,0
380,993404,0
357,994592,0
379,995784,0
372,996972,0
335,998164,0
273,999352,0
248,1000544,0
221,1001820,0
186,1003092,0
218,1004368,0
276,1005644,0
337,1006920,0
376,1008192,0
396,1009468,0
385,1010744,0
383,1012020,0
373,1013292,0
358,1014568,0
384,1015844,0
371,1017120,0
314,1018392,0
256,1019668,0
250,1020944,0
200,1022220,0
196,1023492,0
239,1024768,0
308,1026044,0
352,1027320,0
378,1028592,0
383,1029868,0
369,1031144,0
378,1032420,0
361,1033692,0
342,1034968,0
373,1036244,0
353,1037520,0
304,1038792,0
262,1040068,0
252,1041344,0
197,1042620,0
212,1043892,0
262,1045168,0
333,1046444,0
361,1047720,0
385,1048992,0
380,1050268,0
377,1051544,0
378,1052820,0
356,1054092,0
354,1055368,0
370,1056644,0
342,1057920,0
284,1059192,0
251,1060468,0
236,1061744,0
202,1063020,0
228,1064292,0
280,1065568,0
345,1066844,0
369,1068120,0
384,1069392,0
376,1070668,0
380,1071944,0
371,1073220,0
347,1074492,0
371,1075768,0
366,1077044,0
323,1078320,0
264,1079592,0
253,1080868,0
213,1082144,0
201,1083420,0
242,1084692,0
309,1085968,0
354,1087244,0
375,1088524,0
380,1089792,0
372,1091068,0
382,1092344,0
367,1093620,0
356,1094892,0
378,1096168,0
354,1097444,0
298,1098720,0
257,1099992,0
258,1101268,0
203,1102544,0
202,1103820,0
246,1105092,0
316,1106368,0
362,1107644,0
387,1108920,0
382,1110192,0
380,1111468,0
389,1112744,0
371,1114020,0
368,1115292,0
382,1116568,0
345,1117844,0
283,1119120,0
246,1120392,0
231,1121668,0
187,1122944,0
202,1124220,0
263,1125492,0
340,1126768,0
365,1128044,0
389,1129320,0
388,1130592,0
390,1131868,0
385,1133144,0
363,1134420,0
381,1135692,0
374,1136968,0
328,1138244,0
261,1139520,0
244,1140792,0
205,1142068,0
191,1143344,0
226,1144620,0
293,1145892,0
346,1147168,0
379,1148444,0
392,1149720,0
381,1150992,0
390,1152268,0
377,1153544,0
356,1154820,0
385,1156092,0
368,1157368,0
308,1158644,0
252,1159920,0
242,1161192,0
184,1162468,0
185,1163744,0
241,1165020,0
317,1166292,0
359,1167568,0
387,1168844,0
385,1170120,0
381,1171392,0
384,1172668,0
375,1173944,0
375,1175220,0
390,1176492,0
351,1177768,0
297,1179044,0
246,1180320,0
227,1181592,0
177,1182868,0
191,1184144,0
246,1185420,0
321,1186692,0
367,1187968,0
408,1189244,0
403,1190520,0
393,1191792,0
391,1193068,0
361,1194344,0
385,1195620,0
369,1196892,0
339,1198168,0
266,1199444,0
235,1200720,0
205,1201992,0
169,1203268,0
204,1204544,0
291,1205820,0
363,1207092,0
380,1208368,0
391,1209644,0
364,1210920,0
398,1212192,0
392,1213468,0
371,1214744,0
378,1216020,0
350,1217292,0
279,1218576,0
255,1219844,0
278,1221120,0
198,1222392,0
204,1223668,0
238,1224944,0
326,1226220,0
342,1227492,0
330,1228768,0
394,1230044,0
405,1231320,0
394,1232592,0
351,1233868,0
324,1235144,1
385,1236420,1
358,1237692,1
292,1238968,1
258,1240244,1
247,1241520,1
191,1242792,1
200,1244068,1
247,1245344,1
335,1246620,1
389,1247892,1
419,1249168,1
380,1250444,1
373,1251720,1
357,1252992,1
335,1254268,1
361,1255544,1
371,1256820,1
315,1258092,1
294,1259368,1
282,1260644,1
251,1261920,1
192,1263192,1
211,1264468,1
281,1265744,1
376,1267020,1
419,1268292,1
381,1269568,1
333,1270844,1
351,1272120,1
361,1273392,1
335,1274668,1
393,1275944,1
370,1277220,1
328,1278492,1
255,1279768,1
253,1281044,1
189,1282320,1
179,1283592,1
247,1284868,1
361,1286148,1
366,1287420,1
408,1288692,1
369,1289968,1
382,1291244,1
420,1292520,1
371,1293792,1
319,1295068,1
321,1296344,1
340,1297620,1
304,1298892,1
256,1300168,1
248,1301444,1
209,1302720,1
222,1303992,1
272,1305268,1
344,1306544,1
364,1307820,1
357,1309092,1
368,1310368,1
382,1311644,1
389,1312920,1
363,1314192,1
368,1315468,1
368,1316744,1
330,1318020,1
279,1319292,1
253,1320568,1
237,1321844,1
201,1323120,1
244,1324392,1
304,1325668,1
355,1326944,1
372,1328220,1
401,1329492,1
364,1330768,1
349,1332044,1
339,1333320,1
329,1334592,1
345,1335868,1
338,1337144,1
369,1338420,1
342,1339692,1
275,1340968,1
177,1342244,1
170,1343520,1
230,1344792,1
327,1346068,1
378,1347344,1
404,1348624,1
388,1349892,1
357,1351168,1
354,1352444,1
354,1353720,1
341,1354992,1
374,1356268,1
346,1357544,1
299,1358820,1
269,1360092,1
280,1361368,1
196,1362644,1
181,1363920,1
259,1365192,1
359,1366468,1
360,1367744,1
376,1369020,1
392,1370292,1
384,1371568,1
367,1372844,1
365,1374120,1
365,1375392,1
374,1376668,1
342,1377944,1
285,1379220,1
243,1380492,1
211,1381768,1
205,1383044,1
239,1384320,1
285,1385592,1
339,1386868,1
354,1388144,1
382,1389420,1
367,1390692,1
381,1391968,1
376,1393244,1
364,1394520,1
378,1395792,1
353,1397068,1
329,1398344,1
263,1399620,1
279,1400892,1
213,1402168,1
203,1403444,1
247,1404720,1
316,1405992,1
347,1407268,1
366,1408544,1
370,1409820,1
360,1411092,1
388,1412368,1
393,1413644,1
334,1414920,1
362,1416200,1
364,1417468,1
330,1418744,1
246,1420020,1
210,1421292,1
192,1422568,1
257,1423844,1
283,1425120,1
320,1426392,1
355,1427668,1
367,1428944,1
365,1430220,1
379,1431492,1
395,1432768,1
367,1434044,1
360,1435320,1
358,1436592,1
326,1437868,1
281,1439144,1
260,1440420,1
243,1441692,1
203,1442968,1
221,1444244,1
283,1445520,1
347,1446792,1
357,1448068,1
371,1449344,1
378,1450620,1
388,1451892,1
373,1453168,1
372,1454444,1
382,1455720,1
386,1456992,1
339,1458268,1
236,1459544,1
227,1460820,1
210,1462092,1
209,1463368,1
247,1464644,1
309,1465920,1
352,1467192,1
373,1468468,1
381,1469744,1
374,1471020,1
378,1472292,1
367,1473568,1
345,1474844,1
370,1476120,1
358,1477392,1
313,1478672,1
254,1479944,1
252,1481220,1
202,1482492,1
207,1483768,1
262,1485044,1
341,1486320,1
356,1487592,1
378,1488868,1
379,1490144,1
395,1491420,1
385,1492692,1
358,1493968,1
349,1495244,1
359,1496520,1
334,1497792,1
298,1499068,1
276,1500344,1
238,1501620,1
200,1502892,1
212,1504168,1
263,1505444,1
335,1506720,1
367,1507992,1
389,1509268,1
381,1510544,1
380,1511820,1
371,1513092,1
350,1514368,1
372,1515644,1
367,1516920,1
335,1518192,1
276,1519468,1
256,1520744,1
219,1522020,1
205,1523292,1
235,1524568,1
301,1525844,1
352,1527120,1
375,1528392,1
389,1529668,1
378,1530944,1
380,1532220,1
365,1533492,1
341,1534768,1
370,1536044,1
362,1537320,1
312,1538592,1
263,1539868,1
253,1541144,1
201,1542420,1
201,1543692,1
252,1544968,1
327,1546248,1
364,1547520,1
384,1548792,1
382,1550068,1
373,1551344,1
375,1552620,1
357,1553892,1
355,1555168,1
376,1556444,1
356,1557720,1
300,1558992,1
251,1560268,1
240,1561544,1
195,1562820,1
213,1564092,1
270,1565368,1
344,1566644,1
366,1567920,1
383,1569192,1
383,1570468,1
382,1571744,1
372,1573020,1
348,1574292,1
361,1575568,1
369,1576844,1
336,1578120,1
280,1579392,1
244,1580668,1
221,1581944,1
200,1583220,1
238,1584492,1
296,1585768,1
348,1587044,1
373,1588320,1
388,1589592,1
386,1590868,1
382,1592144,1
362,1593420,1
331,1594692,1
367,1595968,1
356,1597244,1
326,1598520,1
275,1599792,1
259,1601068,1
205,1602344,1
201,1603620,1
253,1604892,1
325,1606168,1
351,1607444,1
372,1608720,1
384,1609992,1
380,1611268,1
381,1612544,1
364,1613820,1
353,1615092,1
379,1616368,1
355,1617644,1
299,1618920,1
257,1620192,1
249,1621468,1
191,1622744,1
208,1624020,1
260,1625292,1
339,1626568,1
369,1627844,1
387,1629120,1
382,1630392,1
381,1631668,1
388,1632944,1
367,1634220,1
380,1635492,1
382,1636768,1
334,1638044,1
270,1639320,1
246,1640592,1
221,1641868,1
197,1643144,1
226,1644420,1
283,1645692,1
345,1646968,1
369,1648244,1
383,1649520,1
375,1650792,1
382,1652068,1
369,1653344,1
343,1654620,1
374,1655892,0
368,1657168,0
325,1658444,0
265,1659720,0
247,1660992,0
199,1662268,0
197,1663544,0
247,1664820,0
316,1666092,0
351,1667368,0
378,1668644,0
384,1669920,0
378,1671192,0
377,1672468,0
363,1673744,0
348,1675020,0
374,1676300,0
352,1677568,0
294,1678844,0
265,1680120,0
256,1681392,0
191,1682668,0
200,1683944,0
252,1685220,0
331,1686492,0
362,1687768,0
395,1689044,0
387,1690320,0
388,1691592,0
381,1692868,0
356,1694144,0
345,1695420,0
356,1696692,0
336,1697968,0
277,1699244,0
250,1700520,0
233,1701792,0
204,1703068,0
219,1704344,0
282,1705620,0
349,1706892,0
367,1708168,0
385,1709444,0
379,1710720,0
388,1711992,0
390,1713268,0
355,1714544,0
383,1715820,0
367,1717092,0
314,1718368,0
256,1719644,0
243,1720920,0
200,1722192,0
187,1723468,0
232,1724744,0
306,1726020,0
359,1727292,0
378,1728568,0
391,1729844,0
384,1731120,0
391,1732392,0
380,1733668,0
361,1734944,0
384,1736220,0
359,1737492,0
298,1738768,0
248,1740044,0
240,1741320,0
181,1742592,0
189,1743868,0
241,1745144,0
320,1746420,0
356,1747692,0
388,1748968,0
389,1750244,0
389,1751520,0
401,1752792,0
376,1754068,0
371,1755344,0
365,1756620,0
338,1757892,0
287,1759168,0
245,1760444,0
220,1761720,0
178,1762992,0
202,1764268,0
268,1765544,0
337,1766820,0
363,1768092,0
392,1769368,0
389,1770644,0
397,1771920,0
396,1773192,0
362,1774468,0
379,1775744,0
365,1777020,0
332,1778292,0
267,1779568,0
241,1780844,0
197,1782120,0
185,1783392,0
221,1784668,0
292,1785944,0
346,1787220,0
375,1788492,0
394,1789768,0
385,1791044,0
394,1792320,0
376,1793592,0
358,1794868,0
389,1796144,0
367,1797420,0
306,1798692,0
252,1799968,0
239,1801244,0
181,1802520,0
189,1803792,0
242,1805068,0
325,1806348,0
362,1807620,0
391,1808892,0
390,1810168,0
384,1811444,0
385,1812720,0
358,1813992,0
352,1815268,0
369,1816544,0
349,1817820,0
288,1819092,0
245,1820368,0
223,1821644,0
193,1822920,0
218,1824192,0
276,1825468,0
345,1826744,0
371,1828020,0
388,1829292,0
379,1830568,0
387,1831844,0
377,1833120,0
350,1834392,0
369,1835668,0
369,1836944,0
327,1838220,0
267,1839492,0
248,1840768,0
218,1842044,0
201,1843320,0
236,1844592,0
301,1845868,0
353,1847144,0
374,1848420,0
385,1849692,0
375,1850968,0
379,1852244,0
370,1853520,0
349,1854792,0
375,1856068,0
359,1857344,0
301,1858620,0
257,1859892,0
255,1861168,0
205,1862444,0
213,1863720,0
252,1864992,0
328,1866268,0
361,1867544,0
383,1868820,0
387,1870092,0
378,1871368,0
378,1872644,0
351,1873920,0
346,1875192,0
371,1876468,0
348,1877744,0
293,1879020,0
254,1880292,0
244,1881568,0
190,1882844,0
221,1884120,0
272,1885392,0
333,1886668,0
362,1887944,0
392,1889220,0
391,1890492,0
386,1891768,0
373,1893044,0
343,1894320,0
359,1895592,0
365,1896868,0
327,1898144,0
271,1899420,0
251,1900692,0
226,1901968,0
206,1903244,0
237,1904520,0
299,1905792,0
349,1907068,0
376,1908344,0
385,1909620,0
370,1910892,0
385,1912168,0
366,1913444,0
345,1914720,0
374,1915992,0
363,1917268,0
313,1918544,0
261,1919820,0
252,1921092,0
194,1922368,0
201,1923644,0
251,1924920,0
326,1926192,0
362,1927468,0
382,1928744,0
383,1930020,0
375,1931292,0
383,1932568,0
364,1933844,0
350,1935120,0
372,1936400,0
348,1937668,0
291,1938944,0
251,1940220,0
246,1941492,0
198,1942768,0
211,1944044,0
265,1945320,0
340,1946592,0
367,1947868,0
383,1949144,0
380,1950420,0
383,1951692,0
376,1952968,0
360,1954244,0
366,1955520,0
368,1956792,0
334,1958068,0
278,1959344,0
251,1960620,0
223,1961892,0
191,1963168,0
221,1964444,0
288,1965720,0
346,1966992,0
373,1968268,0
391,1969544,0
382,1970820,0
389,1972092,0
380,1973368,0
368,1974644,0
390,1975920,0
369,1977192,0
313,1978468,0
253,1979744,0
245,1981020,0
189,1982292,0
184,1983568,0
228,1984844,0
297,1986120,0
355,1987392,0
375,1988668,0
389,1989944,0
388,1991220,0
392,1992492,0
378,1993768,0
364,1995044,0
386,1996320,0
362,1997592,0
301,1998868,0
252,2000144,0
241,2001420,0
181,2002692,0
192,2003976,0
249,2005244,0
325,2006520,0
369,2007792,0
389,2009068,0
376,2010344,0
397,2011620,0
393,2012892,0
364,2014168,0
361,2015444,0
354,2016720,0
336,2017992,0
267,2019268,0
238,2020544,0
253,2021820,0
219,2023092,0
227,2024368,0
268,2025644,0
318,2026920,0
360,2028192,0
361,2029468,0
365,2030744,0
414,2032020,0
374,2033292,0
355,2034568,0
386,2035844,0
384,2037120,0
320,2038392,0
265,2039668,0
268,2040944,0
196,2042220,0
185,2043492,0
219,2044768,0
290,2046044,0
357,2047320,0
412,2048592,0
395,2049868,0
373,2051144,0
359,2052420,0
379,2053692,0
373,2054968,1
366,2056244,1
306,2057520,1
287,2058792,1
237,2060068,1
280,2061344,1
239,2062620,1
240,2063892,1
265,2065168,1
329,2066448,1
356,2067720,1
397,2068992,1
407,2070268,1
360,2071544,1
339,2072820,1
304,2074092,1
342,2075368,1
356,2076644,1
334,2077920,1
296,2079192,1
279,2080468,1
237,2081744,1
203,2083020,1
254,2084292,1
317,2085568,1
336,2086844,1
356,2088120,1
350,2089392,1
402,2090668,1
429,2091944,1
377,2093220,1
310,2094492,1
328,2095768,1
343,2097044,1
332,2098320,1
270,2099592,1
251,2100868,1
213,2102144,1
197,2103420,1
265,2104692,1
314,2105968,1
373,2107244,1
415,2108520,1
380,2109792,1
325,2111068,1
333,2112344,1
347,2113620,1
349,2114892,1
401,2116168,1
386,2117444,1
351,2118720,1
263,2119992,1
245,2121268,1
183,2122544,1
204,2123820,1
240,2125092,1
307,2126368,1
377,2127644,1
402,2128920,1
396,2130192,1
377,2131468,1
372,2132744,1
347,2134024,1
357,2135292,1
344,2136568,1
340,2137844,1
281,2139120,1
261,2140392,1
261,2141668,1
208,2142944,1
225,2144220,1
289,2145492,1
360,2146768,1
352,2148044,1
364,2149320,1
357,2150592,1
379,2151868,1
380,2153144,1
348,2154420,1
379,2155692,1
371,2156968,1
320,2158244,1
263,2159520,1
272,2160792,1
209,2162068,1
223,2163344,1
257,2164620,1
345,2165892,1
329,2167168,1
355,2168444,1
369,2169720,1
387,2170992,1
383,2172268,1
344,2173544,1
322,2174820,1
358,2176092,1
322,2177368,1
323,2178644,1
300,2179920,1
274,2181192,1
187,2182468,1
209,2183744,1
262,2185020,1
336,2186292,1
361,2187568,1
367,2188844,1
376,2190120,1
391,2191392,1
395,2192668,1
342,2193944,1
343,2195220,1
368,2196496,1
351,2197768,1
296,2199044,1
257,2200320,1
252,2201592,1
209,2202868,1
230,2204144,1
279,2205420,1
339,2206692,1
363,2207968,1
381,2209244,1
372,2210520,1
372,2211792,1
365,2213068,1
343,2214344,1
356,2215620,1
363,2216892,1
332,2218168,1
276,2219444,1
260,2220720,1
230,2221992,1
215,2223268,1
250,2224544,1
305,2225820,1
356,2227092,1
379,2228368,1
380,2229644,1
368,2230920,1
369,2232192,1
349,2233468,1
336,2234744,1
371,2236020,1
356,2237292,1
307,2238568,1
262,2239844,1
262,2241120,1
219,2242392,1
223,2243668,1
254,2244944,1
329,2246220,1
358,2247492,1
366,2248768,1
369,2250044,1
371,2251320,1
381,2252592,1
362,2253868,1
345,2255144,1
361,2256420,1
340,2257692,1
292,2258968,1
260,2260244,1
258,2261520,1
210,2262792,1
236,2264076,1
285,2265344,1
354,2266620,1
373,2267892,1
384,2269168,1
354,2270444,1
358,2271720,1
369,2272992,1
350,2274268,1
365,2275544,1
367,2276820,1
326,2278092,1
276,2279368,1
261,2280644,1
231,2281920,1
227,2283192,1
248,2284468,1
301,2285744,1
335,2287020,1
355,2288292,1
385,2289568,1
378,2290844,1
389,2292120,1
367,2293392,1
344,2294668,1
360,2295944,1
356,2297220,1
313,2298492,1
271,2299768,1
265,2301044,1
213,2302320,1
213,2303592,1
259,2304868,1
329,2306144,1
360,2307420,1
379,2308692,1
382,2309968,1
374,2311244,1
379,2312520,1
359,2313792,1
342,2315068,1
368,2316344,1
352,2317620,1
299,2318892,1
259,2320168,1
254,2321444,1
214,2322720,1
215,2323992,1
261,2325268,1
339,2326544,0
370,2327820,0
395,2329092,0
376,2330368,0
367,2331644,0
375,2332920,0
360,2334192,0
373,2335468,0
388,2336744,0
349,2338020,0
268,2339292,0
223,2340568,0
203,2341844,0
185,2343120,0
226,2344392,0
297,2345668,0
354,2346944,0
364,2348220,0
375,2349492,0
383,2350768,0
397,2352044,0
392,2353320,0
349,2354592,0
384,2355868,0
349,2357144,0
300,2358420,0
259,2359692,0
259,2360968,0
200,2362244,0
211,2363520,0
260,2364792,0
330,2366068,0
371,2367344,0
385,2368620,0
390,2369892,0
374,2371168,0
331,2372444,0
331,2373720,0
311,2374992,0
382,2376268,0
391,2377544,0
326,2378820,0
282,2380092,0
239,2381368,0
209,2382644,0
214,2383920,0
268,2385192,0
378,2386468,0
393,2387744,0
349,2389020,0
284,2390292,0
286,2391568,0
349,2392844,0
369,2394124,0
401,2395392,0
428,2396668,0
396,2397944,0
281,2399220,0
219,2400492,0
238,2401768,0
215,2403044,0
194,2404320,0
260,2405592,0
344,2406868,0
364,2408144,1
341,2409420,1
404,2410692,1
467,2411968,1
405,2413244,1
389,2414520,1
333,2415792,1
363,2417068,1
259,2418344,1
301,2419620,1
211,2420892,1
163,2422168,1
177,2423444,1
227,2424720,1
325,2425992,1
373,2427268,1
377,2428544,1
352,2429820,1
361,2431092,1
383,2432368,1
395,2433644,1
380,2434920,1
371,2436192,1
360,2437468,1
302,2438744,1
271,2440020,1
253,2441292,1
194,2442568,1
229,2443844,1
338,2445120,1
326,2446392,1
346,2447668,1
315,2448944,1
354,2450220,1
363,2451492,1
382,2452768,1
356,2454044,1
342,2455320,1
344,2456592,1
333,2457868,1
288,2459144,1
258,2460420,1
246,2461692,1
209,2462968,1
256,2464244,1
288,2465520,1
349,2466792,1
352,2468068,1
399,2469344,1
385,2470620,1
394,2471892,1
351,2473168,1
341,2474444,1
371,2475720,1
369,2476992,1
315,2478268,1
271,2479544,1
268,2480820,1
224,2482092,1
209,2483368,1
249,2484644,1
314,2485920,1
352,2487192,1
376,2488468,1
373,2489744,1
367,2491020,1
373,2492292,1
359,2493568,1
334,2494844,1
364,2496120,1
355,2497392,1
311,2498668,1
265,2499944,1
264,2501220,1
226,2502492,1
219,2503768,1
266,2505044,1
338,2506320,1
356,2507592,1
384,2508868,1
383,2510144,1
368,2511420,1
360,2512692,1
341,2513968,1
341,2515244,1
367,2516520,1
359,2517792,1
332,2519068,1
276,2520344,1
224,2521620,1
168,2522892,1
199,2524176,1
281,2525444,1
349,2526720,1
369,2527992,1
389,2529268,1
372,2530544,1
374,2531820,1
370,2533092,1
342,2534368,1
368,2535644,1
374,2536920,1
339,2538192,1
263,2539468,1
254,2540744,1
226,2542020,1
223,2543292,1
257,2544568,1
304,2545844,1
332,2547120,1
362,2548392,1
374,2549668,1
369,2550944,1
383,2552220,1
386,2553492,1
341,2554768,1
372,2556044,1
354,2557320,1
303,2558592,1
275,2559868,1
264,2561144,1
210,2562420,1
218,2563692,1
260,2564968,1
316,2566244,1
355,2567520,1
382,2568792,1
383,2570068,1
362,2571344,1
366,2572620,1
363,2573892,1
365,2575168,1
379,2576444,1
350,2577720,1
287,2578992,1
239,2580268,1
243,2581544,1
203,2582820,1
219,2584092,1
267,2585368,1
345,2586644,1
389,2587920,1
397,2589192,1
373,2590468,1
358,2591748,1
358,2593020,1
357,2594292,1
390,2595568,1
377,2596844,1
330,2598120,1
267,2599392,1
245,2600668,1
253,2601944,1
248,2603220,1
248,2604492,1
282,2605768,0
323,2607044,0
365,2608320,0
363,2609592,0
362,2610868,0
368,2612144,0
371,2613420,0
356,2614692,0
357,2615968,0
337,2617244,0
309,2618520,0
289,2619792,0
276,2621068,0
231,2622344,0
235,2623620,0
269,2624892,0
313,2626168,0
339,2627444,0
363,2628720,0
377,2629992,0
370,2631268,0
370,2632544,0
351,2633820,0
346,2635092,0
367,2636368,0
354,2637644,0
298,2638920,0
262,2640192,0
236,2641468,0
200,2642744,0
244,2644020,0
303,2645292,0
353,2646568,0
340,2647844,0
358,2649120,0
377,2650392,0
405,2651668,0
396,2652944,0
334,2654224,0
355,2655492,0
344,2656768,0
306,2658044,0
258,2659320,0
251,2660592,0
239,2661868,0
234,2663144,0
255,2664420,0
331,2665692,0
367,2666968,0
354,2668244,0
350,2669520,0
326,2670792,0
366,2672068,0
362,2673344,0
331,2674620,0
423,2675892,0
425,2677168,0
318,2678444,0
220,2679720,0
220,2680992,0
202,2682268,0
218,2683544,0
268,2684820,0
331,2686092,1
349,2687368,1
344,2688644,1
355,2689920,1
407,2691192,1
369,2692468,1
435,2693744,1
392,2695020,1
405,2696292,1
249,2697568,1
216,2698844,1
270,2700120,1
297,2701392,1
232,2702668,1
248,2703944,1
269,2705220,1
311,2706492,1
375,2707768,1
374,2709044,1
349,2710320,1
315,2711592,1
348,2712868,1
326,2714144,1
373,2715420,1
388,2716692,1
351,2717968,1
268,2719244,1
240,2720520,1
276,2721800,1
247,2723068,1
247,2724344,1
278,2725620,1
326,2726892,1
364,2728168,1
392,2729444,1
381,2730720,1
381,2731992,1
349,2733268,1
334,2734544,1
376,2735820,1
381,2737092,1
307,2738368,1
254,2739644,1
259,2740920,1
227,2742192,1
268,2743468,1
272,2744744,1
316,2746020,1
319,2747292,1
361,2748568,1
359,2749844,1
357,2751120,1
384,2752392,1
364,2753668,1
353,2754944,1
358,2756220,1
337,2757492,1
302,2758768,1
272,2760044,1
265,2761320,1
206,2762592,1
223,2763868,1
277,2765144,1
340,2766420,1
367,2767692,1
378,2768968,1
377,2770244,1
366,2771520,1
379,2772792,1
362,2774068,1
338,2775344,1
350,2776620,1
347,2777892,1
292,2779168,1
253,2780444,1
250,2781720,1
215,2782992,1
219,2784272,1
276,2785544,1
361,2786820,1
381,2788092,1
379,2789368,1
364,2790644,1
384,2791920,1
356,2793192,1
353,2794468,1
376,2795744,1
356,2797020,1
311,2798292,1
252,2799568,1
260,2800844,1
226,2802120,1
217,2803392,1
260,2804668,1
318,2805944,1
351,2807220,1
374,2808492,1
376,2809768,1
368,2811044,1
374,2812320,1
365,2813592,1
344,2814868,1
362,2816144,1
352,2817420,1
302,2818692,1
271,2819968,1
266,2821244,1
213,2822520,1
225,2823792,1
265,2825068,1
331,2826344,1
361,2827620,1
375,2828892,1
366,2830168,1
363,2831444,1
363,2832720,1
352,2833992,1
354,2835268,1
366,2836544,1
341,2837820,1
288,2839092,1
266,2840368,1
241,2841644,1
210,2842920,1
235,2844192,1
289,2845468,1
354,2846744,1
374,2848020,1
387,2849292,1
380,2850568,1
375,2851848,1
356,2853120,1
332,2854392,1
352,2855668,1
351,2856944,1
332,2858220,1
289,2859492,1
263,2860768,1
220,2862044,1
210,2863320,1
248,2864592,1
307,2865868,1
347,2867144,1
357,2868420,0
384,2869692,0
391,2870968,0
413,2872244,0
380,2873520,0
334,2874792,0
356,2876068,0
325,2877344,0
305,2878620,0
268,2879892,0
264,2881168,0
214,2882444,0
230,2883720,0
264,2884992,0
335,2886268,0
361,2887544,0
386,2888820,0
357,2890092,0
360,2891368,0
368,2892644,0
368,2893920,0
351,2895192,0
374,2896468,0
344,2897744,0
287,2899020,0
272,2900292,0
253,2901568,0
211,2902844,0
246,2904120,0
313,2905392,0
352,2906668,0
361,2907944,0
356,2909220,0
339,2910492,0
329,2911768,0
377,2913044,0
361,2914320,0
366,2915592,0
346,2916868,0
366,2918144,0
344,2919420,0
260,2920692,0
218,2921968,0
167,2923244,0
206,2924520,0
258,2925792,0
333,2927068,0
436,2928344,0
399,2929620,0
401,2930892,0
386,2932168,0
330,2933444,0
298,2934720,0
343,2935992,0
369,2937268,0
314,2938544,0
269,2939820,0
310,2941092,1
249,2942368,1
198,2943644,1
249,2944920,1
315,2946192,1
303,2947468,1
367,2948744,1
429,2950020,1
417,2951292,1
339,2952568,1
326,2953844,1
291,2955120,1
331,2956392,1
322,2957668,1
346,2958944,1
240,2960220,1
256,2961492,1
230,2962768,1
215,2964044,1
309,2965320,1
353,2966592,1
365,2967868,1
378,2969144,1
358,2970420,1
338,2971692,1
370,2972968,1
354,2974244,1
341,2975520,1
312,2976792,1
277,2978068,1
246,2979344,1
288,2980620,1
323,2981900,1
246,2983168,1
256,2984444,1
368,2985720,1
347,2986992,1
328,2988268,1
340,2989544,1
392,2990820,1
342,2992092,1
327,2993368,1
331,2994644,1
388,2995920,1
368,2997192,1
314,2998468,1
263,2999744,1
248,3001020,1
234,3002292,1
238,3003568,1
251,3004844,1
301,3006120,1
356,3007392,1
401,3008668,1
357,3009944,1
390,3011220,1
352,3012492,1
349,3013768,1
316,3015044,1
357,3016320,1
355,3017592,1
308,3018868,1
271,3020144,1
251,3021420,1
203,3022692,1
237,3023968,1
288,3025244,1
353,3026520,1
370,3027792,1
383,3029068,1
365,3030344,1
361,3031620,1
363,3032892,1
337,3034168,1
358,3035444,1
359,3036720,1
330,3037992,1
280,3039268,1
260,3040544,1
244,3041820,1
230,3043092,1
261,3044368,1
315,3045644,1
347,3046920,1
362,3048192,1
362,3049468,1
357,3050744,1
367,3052020,1
358,3053292,1
341,3054568,1
373,3055844,1
362,3057120,1
310,3058392,1
272,3059668,1
272,3060944,1
225,3062220,1
213,3063492,1
261,3064768,1
321,3066044,1
352,3067320,1
396,3068592,1
392,3069868,1
365,3071144,1
351,3072420,1
337,3073692,1
337,3074968,1
361,3076244,1
347,3077520,1
300,3078792,1
258,3080068,1
271,3081344,1
227,3082620,1
241,3083892,1
284,3085168,1
341,3086444,1
351,3087720,1
366,3088992,1
369,3090268,1
378,3091544,1
365,3092820,1
343,3094092,1
339,3095368,1
364,3096644,1
332,3097920,1
288,3099192,1
266,3100468,1
244,3101744,1
226,3103020,1
262,3104292,1
303,3105568,1
343,3106844,1
351,3108120,1
377,3109392,1
367,3110668,1
365,3111948,1
362,3113220,1
338,3114492,1
361,3115768,1
357,3117044,1
320,3118320,1
267,3119592,1
259,3120868,1
224,3122144,1
229,3123420,1
257,3124692,1
326,3125968,1
351,3127244,1
365,3128520,1
379,3129792,1
388,3131068,1
403,3132344,1
363,3133620,1
333,3134892,1
359,3136168,1
347,3137444,1
295,3138720,1
256,3139992,1
252,3141268,1
186,3142544,1
214,3143820,1
277,3145092,1
360,3146368,1
364,3147644,1
374,3148920,1
375,3150192,1
368,3151468,1
392,3152744,1
363,3154020,1
367,3155292,1
367,3156568,1
333,3157844,1
282,3159120,1
251,3160392,1
223,3161668,1
197,3162944,1
227,3164220,1
279,3165492,1
342,3166768,0
373,3168044,0
398,3169320,0
375,3170592,0
375,3171868,0
366,3173144,0
382,3174420,0
431,3175692,0
402,3176968,0
305,3178244,0
249,3179520,0
243,3180792,0
182,3182068,0
156,3183344,0
252,3184620,0
321,3185892,0
346,3187168,0
344,3188444,0
367,3189720,0
363,3190992,0
387,3192268,0
402,3193544,0
371,3194820,0
382,3196092,0
336,3197368,0
293,3198644,0
263,3199920,0
251,3201192,0
201,3202468,0
203,3203744,0
244,3205020,0
320,3206292,0
360,3207568,0
385,3208844,0
386,3210120,0
381,3211392,0
385,3212668,0
368,3213944,0
367,3215220,1
371,3216492,1
341,3217768,1
289,3219044,1
249,3220320,1
235,3221592,1
191,3222868,1
211,3224144,1
296,3225420,1
347,3226692,1
354,3227968,1
378,3229244,1
396,3230520,1
368,3231792,1
357,3233068,1
366,3234344,1
423,3235620,1
360,3236892,1
267,3238168,1
195,3239444,1
295,3240720,1
331,3242000,1
290,3243268,1
199,3244544,1
240,3245820,1
350,3247092,1
333,3248368,1
397,3249644,1
336,3250920,1
341,3252192,1
349,3253468,1
394,3254744,1
392,3256020,1
341,3257292,1
337,3258568,1
233,3259844,1
202,3261120,1
267,3262392,1
335,3263668,1
206,3264944,1
232,3266220,1
340,3267492,1
371,3268768,1
361,3270044,1
357,3271320,1
357,3272592,1
366,3273868,1
353,3275144,1
357,3276420,1
348,3277692,1
305,3278968,1
274,3280244,1
245,3281520,1
197,3282792,1
252,3284068,1
325,3285344,1
363,3286620,1
358,3287892,1
366,3289168,1
353,3290444,1
362,3291720,1
348,3292992,1
346,3294268,1
368,3295544,1
367,3296820,1
317,3298092,1
293,3299368,1
262,3300644,1
214,3301920,1
206,3303192,1
264,3304468,1
331,3305744,1
366,3307020,1
368,3308292,1
359,3309576,1
348,3310844,1
362,3312120,1
357,3313392,1
341,3314668,1
375,3315944,1
356,3317220,1
304,3318492,1
268,3319768,1
267,3321044,1
225,3322320,1
225,3323592,1
268,3324868,1
338,3326144,1
362,3327420,1
368,3328692,1
366,3329968,1
364,3331244,1
359,3332520,1
345,3333792,1
359,3335068,1
383,3336344,1
346,3337620,1
274,3338892,1
260,3340168,1
259,3341444,1
218,3342720,1
243,3343992,1
296,3345268,1
357,3346544,1
347,3347820,1
354,3349092,1
368,3350368,1
384,3351644,1
384,3352920,1
333,3354192,1
359,3355468,1
361,3356744,1
331,3358020,1
270,3359292,1
252,3360568,1
236,3361844,1
227,3363120,1
255,3364392,1
296,3365668,1
354,3366944,1
368,3368220,1
383,3369492,1
373,3370768,1
377,3372048,1
363,3373320,1
334,3374592,1
344,3375868,1
352,3377144,1
324,3378420,1
285,3379692,1
263,3380968,1
199,3382244,1
224,3383520,1
278,3384792,1
322,3386068,1
342,3387344,1
369,3388620,1
379,3389892,1
368,3391168,1
380,3392444,1
367,3393720,1
362,3394992,1
376,3396268,1
349,3397544,1
288,3398820,1
244,3400092,1
240,3401368,1
202,3402644,1
226,3403920,1
262,3405192,1
334,3406468,1
368,3407744,1
404,3409020,1
379,3410292,1
376,3411568,1
379,3412844,1
371,3414120,1
381,3415392,1
366,3416668,1
325,3417944,1
277,3419220,1
253,3420492,1
216,3421768,1
203,3423044,1
235,3424320,1
296,3425592,1
351,3426868,1
371,3428144,1
371,3429420,1
368,3430692,1
398,3431968,1
402,3433244,1
369,3434520,1
360,3435792,1
347,3437068,1
298,3438344,0
257,3439624,0
239,3440892,0
192,3442168,0
215,3443444,0
274,3444720,0
342,3445992,0
367,3447268,0
364,3448544,0
347,3449820,0
363,3451092,0
394,3452368,0
390,3453644,0
360,3454920,0
378,3456192,0
348,3457468,0
289,3458744,0
249,3460020,0
233,3461292,0
213,3462568,0
232,3463844,0
256,3465120,0
350,3466392,0
360,3467668,0
369,3468944,0
327,3470220,0
343,3471492,0
359,3472768,0
370,3474044,0
374,3475320,0
366,3476592,0
337,3477868,0
303,3479144,0
251,3480420,0
254,3481692,0
232,3482968,0
227,3484244,0
280,3485520,0
319,3486792,0
380,3488068,0
391,3489344,0
433,3490620,0
397,3491892,0
329,3493168,0
287,3494444,0
368,3495720,0
360,3496992,0
289,3498268,1
235,3499544,1
251,3500820,1
227,3502096,1
212,3503368,1
254,3504644,1
339,3505920,1
437,3507192,1
417,3508468,1
339,3509744,1
278,3511020,1
337,3512292,1
391,3513568,1
394,3514844,1
380,3516120,1
324,3517392,1
295,3518668,1
215,3519944,1
207,3521220,1
234,3522492,1
283,3523768,1
267,3525044,1
301,3526320,1
417,3527592,1
422,3528868,1
360,3530144,1
351,3531420,1
329,3532692,1
338,3533968,1
349,3535244,1
367,3536520,1
337,3537792,1
283,3539068,1
248,3540344,1
237,3541620,1
209,3542892,1
227,3544168,1
283,3545444,1
353,3546720,1
400,3547992,1
360,3549268,1
365,3550544,1
392,3551820,1
391,3553092,1
351,3554368,1
354,3555644,1
366,3556920,1
326,3558192,1
267,3559468,1
249,3560744,1
210,3562020,1
206,3563292,1
240,3564568,1
310,3565844,1
357,3567120,1
373,3568392,1
378,3569676,1
377,3570944,1
387,3572220,1
374,3573492,1
346,3574768,1
374,3576044,1
352,3577320,1
296,3578592,1
263,3579868,1
261,3581144,1
204,3582420,1
203,3583692,1
261,3584968,1
329,3586244,1
358,3587520,1
383,3588792,1
380,3590068,1
367,3591344,1
365,3592620,1
351,3593892,1
357,3595168,1
362,3596444,1
312,3597720,1
274,3598992,1
264,3600268,1
251,3601544,1
213,3602820,1
242,3604092,1
298,3605368,1
366,3606644,1
394,3607920,1
390,3609192,1
355,3610468,1
352,3611744,1
348,3613020,1
347,3614292,1
368,3615568,1
352,3616844,1
320,3618120,1
271,3619392,1
257,3620668,1
221,3621944,1
226,3623220,1
263,3624492,1
321,3625768,1
362,3627044,1
371,3628320,1
385,3629592,1
357,3630868,1
368,3632144,1
345,3633420,1
332,3634692,1
368,3635968,1
362,3637244,1
311,3638520,1
267,3639792,1
266,3641068,1
216,3642344,1
212,3643620,1
252,3644892,1
336,3646168,1
363,3647444,1
383,3648720,1
372,3649992,1
376,3651268,1
382,3652544,1
372,3653820,1
366,3655092,1
383,3656368,1
354,3657644,1
275,3658920,1
242,3660192,1
237,3661468,1
211,3662744,1
223,3664020,1
272,3665292,1
349,3666568,1
398,3667844,1
401,3669120,1
354,3670392,1
343,3671668,1
378,3672944,1
365,3674220,0
401,3675492,0
362,3676768,0
310,3678044,0
252,3679320,0
249,3680592,0
211,3681868,0
211,3683144,0
256,3684420,0
312,3685692,0
357,3686968,0
372,3688244,0
368,3689520,0
381,3690792,0
374,3692068,0
348,3693344,0
315,3694620,0
368,3695892,0
354,3697168,0
259,3698444,0
267,3699724,0
304,3700992,0
268,3702268,0
265,3703544,0
278,3704820,0
355,3706092,0
370,3707368,0
352,3708644,0
315,3709920,0
321,3711192,0
332,3712468,0
343,3713744,0
350,3715020,0
370,3716292,0
383,3717568,0
311,3718844,0
264,3720120,0
226,3721392,0
219,3722668,0
230,3723944,0
277,3725220,0
357,3726492,0
402,3727768,0
387,3729044,0
361,3730320,0
361,3731592,0
359,3732868,0
336,3734144,0
352,3735420,0
340,3736692,0
323,3737968,0
269,3739244,0
269,3740520,0
246,3741792,0
266,3743068,1
227,3744344,1
299,3745620,1
327,3746892,1
361,3748168,1
393,3749444,1
383,3750720,1
358,3751992,1
340,3753268,1
329,3754544,1
379,3755820,1
363,3757092,1
316,3758368,1
264,3759644,1
259,3760920,1
211,3762192,1
201,3763468,1
257,3764744,1
338,3766020,1
382,3767292,1
388,3768568,1
375,3769844,1
381,3771120,1
373,3772392,1
351,3773668,1
357,3774944,1
383,3776220,1
340,3777492,1
278,3778768,1
228,3780044,1
245,3781320,1
202,3782592,1
225,3783868,1
270,3785144,1
342,3786420,1
359,3787692,1
390,3788968,1
393,3790244,1
387,3791520,1
380,3792792,1
343,3794068,1
358,3795344,1
349,3796620,1
342,3797892,1
292,3799168,1
262,3800444,1
212,3801720,1
190,3802992,1
235,3804268,1
290,3805544,1
345,3806820,1
383,3808092,1
396,3809368,1
383,3810644,1
346,3811920,1
343,3813192,1
345,3814468,1
378,3815744,1
358,3817020,1
312,3818292,1
262,3819568,1
259,3820844,1
231,3822120,1
239,3823392,1
276,3824668,1
312,3825944,1
333,3827220,1
355,3828492,1
371,3829776,1
365,3831044,1
372,3832320,1
365,3833592,1
347,3834868,1
374,3836144,1
346,3837420,1
305,3838692,1
266,3839968,1
264,3841244,1
211,3842520,1
221,3843792,1
262,3845068,1
335,3846344,1
362,3847620,1
387,3848892,1
378,3850168,1
369,3851444,1
377,3852720,1
366,3853992,1
364,3855268,1
372,3856544,1
341,3857820,1
299,3859092,1
253,3860368,1
219,3861644,1
181,3862920,1
244,3864192,1
295,3865468,1
338,3866744,1
356,3868020,1
383,3869292,1
382,3870568,1
394,3871844,0
365,3873120,0
354,3874392,0
355,3875668,0
366,3876944,0
339,3878220,0
296,3879492,0
244,3880768,0
172,3882044,0
246,3883320,0
286,3884592,0
329,3885868,0
351,3887144,0
346,3888420,0
343,3889692,0
329,3890968,0
381,3892244,0
363,3893520,0
335,3894792,0
365,3896068,0
323,3897348,0
293,3898620,0
287,3899892,0
275,3901168,0
231,3902444,0
251,3903720,0
230,3904992,0
334,3906268,0
366,3907544,0
396,3908820,0
374,3910092,0
369,3911368,0
355,3912644,0
341,3913920,0
338,3915192,0
360,3916468,0
366,3917744,0
287,3919020,0
227,3920292,0
218,3921568,0
224,3922844,0
265,3924120,1
319,3925392,1
349,3926668,1
354,3927944,1
348,3929220,1
340,3930492,1
342,3931768,1
388,3933044,1
404,3934320,1
397,3935592,1
338,3936868,1
284,3938144,1
237,3939420,1
244,3940692,1
249,3941968,1
229,3943244,1
254,3944520,1
308,3945792,1
361,3947068,1
394,3948344,1
381,3949620,1
375,3950892,1
384,3952168,1
385,3953444,1
355,3954720,1
379,3955992,1
342,3957268,1
282,3958544,1
216,3959824,1
232,3961092,1
207,3962368,1
220,3963644,1
263,3964920,1
321,3966192,1
365,3967468,1
388,3968744,1
390,3970020,1
383,3971292,1
375,3972568,1
361,3973844,1
362,3975120,1
362,3976392,1
328,3977668,1
297,3978944,1
264,3980220,1
226,3981492,1
177,3982768,1
225,3984044,1
293,3985320,1
351,3986592,1
375,3987868,1
391,3989144,1
362,3990420,1
385,3991692,1
389,3992968,1
353,3994244,1
367,3995520,1
366,3996792,1
321,3998068,1
272,3999344,1
249,4000620,1
210,4001892,1
197,4003168,1
246,4004444,1
322,4005720,1
353,4006992,1
362,4008268,1
383,4009544,1
375,4010820,1
380,4012092,1
368,4013368,1
343,4014644,1
380,4015920,1
355,4017192,1
296,4018468,1
261,4019744,1
261,4021020,1
199,4022292,1
209,4023568,1
265,4024844,1
341,4026120,1
354,4027400,1
373,4028668,1
370,4029944,1
380,4031220,1
389,4032492,1
370,4033768,1
359,4035044,1
371,4036320,1
329,4037592,1
265,4038868,1
240,4040144,1
244,4041420,1
212,4042692,1
241,4043968,1
281,4045244,1
342,4046520,1
365,4047792,1
392,4049068,1
367,4050344,1
392,4051620,1
411,4052892,1
381,4054168,1
318,4055444,1
346,4056720,1
315,4057992,1
273,4059268,1
231,4060544,1
208,4061820,0
230,4063092,0
254,4064368,0
304,4065644,0
344,4066920,0
373,4068192,0
348,4069468,0
359,4070744,0
382,4072020,0
430,4073292,0
375,4074568,0
377,4075844,0
326,4077120,0
314,4078392,0
253,4079668,0
240,4080944,0
190,4082220,0
201,4083492,0
248,4084768,0
271,4086044,0
428,4087320,0
478,4088592,0
354,4089872,0
311,4091144,0
321,4092420,0
397,4093692,0
311,4094968,0
321,4096244,0
363,4097520,0
326,4098792,0
282,4100068,0
267,4101344,0
215,4102620,0
271,4103892,0
352,4105168,0
361,4106444,0
318,4107720,0
330,4108992,0
362,4110268,0
344,4111544,0
383,4112820,0
326,4114092,1
341,4115368,1
326,4116644,1
312,4117920,1
263,4119192,1
276,4120468,1
253,4121744,1
225,4123020,1
259,4124292,1
281,4125568,1
340,4126844,1
377,4128120,1
424,4129392,1
380,4130668,1
386,4131944,1
383,4133220,1
358,4134492,1
369,4135768,1
350,4137044,1
310,4138320,1
252,4139592,1
254,4140868,1
197,4142144,1
216,4143420,1
258,4144692,1
312,4145968,1
331,4147244,1
363,4148520,1
378,4149792,1
373,4151068,1
382,4152344,1
371,4153620,1
358,4154892,1
376,4156168,1
352,4157448,1
311,4158720,1
260,4159992,1
253,4161268,1
177,4162544,1
201,4163820,1
263,4165092,1
328,4166368,1
369,4167644,1
401,4168920,1
402,4170192,1
390,4171468,1
376,4172744,1
337,4174020,1
358,4175292,1
370,4176568,1
338,4177844,1
288,4179120,1
245,4180392,1
208,4181668,1
201,4182944,1
243,4184220,1
290,4185492,1
345,4186768,1
364,4188044,1
382,4189320,1
399,4190592,1
370,4191868,1
367,4193144,1
358,4194420,1
390,4195692,1
375,4196968,1
300,4198244,1
255,4199520,1
246,4200792,1
213,4202068,1
196,4203344,1
249,4204620,1
315,4205892,1
355,4207168,1
380,4208444,1
388,4209720,1
387,4210992,1
393,4212268,1
360,4213544,1
333,4214820,1
370,4216092,1
350,4217368,1
306,4218644,1
261,4219920,1
263,4221192,1
194,4222468,1
173,4223744,1
255,4225020,1
328,4226292,1
389,4227568,1
432,4228844,1
403,4230120,1
375,4231392,1
331,4232668,1
324,4233944,1
353,4235220,1
393,4236492,1
360,4237768,1
306,4239044,1
233,4240320,1
205,4241592,1
180,4242868,1
211,4244144,0
306,4245420,0
315,4246692,0
373,4247968,0
383,4249244,0
396,4250520,0
423,4251792,0
403,4253068,0
360,4254344,0
361,4255620,0
392,4256892,0
331,4258168,0
219,4259444,0
171,4260720,0
149,4261992,0
211,4263268,0
256,4264544,0
351,4265820,0
396,4267092,0
401,4268368,0
367,4269644,0
343,4270920,0
382,4272192,0
384,4273468,0
371,4274744,0
369,4276020,0
350,4277292,0
306,4278568,0
275,4279844,0
244,4281120,0
217,4282392,0
171,4283668,0
272,4284944,0
277,4286220,0
428,4287500,0
449,4288768,0
357,4290044,0
254,4291320,0
348,4292592,0
394,4293868,0
421,4295144,0
359,4296420,0
338,4297692,0
258,4298968,1
175,4300244,1
240,4301520,1
276,4302792,1
284,4304068,1
308,4305344,1
309,4306620,1
319,4307892,1
379,4309168,1
396,4310444,1
388,4311720,1
371,4312992,1
369,4314268,1
381,4315544,1
355,4316820,1
340,4318092,1
262,4319368,1
218,4320644,1
153,4321920,1
209,4323192,1
286,4324468,1
301,4325744,1
336,4327020,1
341,4328292,1
389,4329568,1
384,4330844,1
407,4332120,1
394,4333392,1
370,4334668,1
384,4335944,1
344,4337220,1
324,4338492,1
231,4339768,1
245,4341044,1
186,4342320,1
204,4343592,1
253,4344868,1
310,4346144,1
359,4347420,1
400,4348692,1
407,4349968,1
388,4351244,1
379,4352520,1
362,4353792,1
362,4355068,1
374,4356344,1
337,4357620,1
274,4358892,1
239,4360168,1
233,4361444,1
206,4362720,1
218,4363992,1
281,4365268,1
351,4366544,1
368,4367820,1
389,4369092,1
375,4370368,1
383,4371644,1
382,4372920,1
366,4374192,1
377,4375468,1
368,4376744,1
321,4378020,1
267,4379292,1
250,4380568,1
202,4381844,1
181,4383120,1
249,4384392,1
317,4385668,1
346,4386944,1
355,4388220,1
374,4389492,1
376,4390768,1
392,4392044,1
378,4393320,1
361,4394592,1
384,4395868,1
355,4397144,1
292,4398420,1
264,4399692,1
272,4400968,1
211,4402244,1
188,4403520,1
245,4404792,1
322,4406068,1
355,4407344,1
376,4408620,1
381,4409892,1
375,4411168,1
381,4412444,1
375,4413720,1
357,4414992,1
371,4416268,1
345,4417548,1
290,4418820,1
252,4420092,1
246,4421368,1
201,4422644,1
216,4423920,1
271,4425192,1
339,4426468,1
365,4427744,1
386,4429020,1
376,4430292,1
380,4431568,1
382,4432844,1
364,4434120,1
386,4435392,1
368,4436668,1
322,4437944,1
257,4439220,1
237,4440492,1
221,4441768,1
205,4443044,1
234,4444320,1
293,4445592,1
356,4446868,1
366,4448144,1
383,4449420,1
378,4450692,1
394,4451968,1
378,4453244,1
346,4454520,1
375,4455792,1
355,4457068,1
307,4458344,1
270,4459620,1
266,4460892,1
204,4462168,1
192,4463444,1
238,4464720,1
329,4465992,1
361,4467268,1
371,4468544,1
377,4469820,1
370,4471092,1
402,4472368,1
391,4473644,1
393,4474920,1
344,4476192,1
303,4477468,1
257,4478744,1
249,4480020,1
260,4481292,1
214,4482568,1
227,4483844,1
296,4485120,1
353,4486392,1
366,4487668,1
377,4488944,1
381,4490220,1
385,4491492,1
386,4492768,1
360,4494044,1
365,4495320,1
368,4496592,1
328,4497868,1
269,4499144,1
249,4500420,1
221,4501692,0
198,4502968,0
227,4504244,0
290,4505520,0
355,4506792,0
373,4508068,0
383,4509344,0
366,4510620,0
382,4511892,0
382,4513168,0
354,4514444,0
380,4515720,0
364,4516992,0
317,4518268,0
254,4519544,0
238,4520820,0
189,4522092,0
197,4523368,0
253,4524644,0
320,4525920,0
354,4527192,0
375,4528468,0
372,4529744,0
378,4531020,0
389,4532292,0
373,4533568,0
352,4534844,0
380,4536120,0
348,4537392,0
292,4538668,0
251,4539944,0
247,4541220,0
193,4542492,0
206,4543768,0
262,4545044,0
330,4546320,0
364,4547600,0
394,4548868,0
392,4550144,0
391,4551420,0
379,4552692,0
355,4553968,0
353,4555244,0
366,4556520,0
328,4557792,0
262,4559068,0
227,4560344,0
222,4561620,0
210,4562892,0
248,4564168,0
296,4565444,0
342,4566720,0
369,4567992,0
391,4569268,0
382,4570544,0
388,4571820,0
376,4573092,0
357,4574368,0
376,4575644,0
358,4576920,0
306,4578192,0
253,4579468,0
246,4580744,0
205,4582020,0
206,4583292,0
248,4584568,0
311,4585844,0
348,4587120,0
372,4588392,0
385,4589668,0
383,4590944,0
385,4592220,0
378,4593492,0
359,4594768,0
378,4596044,0
346,4597320,0
282,4598592,0
240,4599868,0
251,4601144,0
204,4602420,0
209,4603692,0
257,4604968,0
325,4606244,0
354,4607520,0
385,4608792,0
381,4610068,0
370,4611344,0
391,4612620,0
381,4613892,0
367,4615176,0
367,4616444,0
332,4617720,0
280,4618992,0
252,4620268,0
230,4621544,0
195,4622820,0
225,4624092,0
281,4625368,0
344,4626644,0
368,4627920,0
387,4629192,0
379,4630468,0
384,4631744,0
372,4633020,0
358,4634292,0
378,4635568,0
374,4636844,0
327,4638120,0
259,4639392,0
241,4640668,0
190,4641944,0
185,4643220,0
233,4644492,0
316,4645768,0
377,4647044,0
390,4648320,0
383,4649592,0
357,4650868,0
375,4652144,0
397,4653420,0
368,4654692,0
371,4655968,0
327,4657244,0
284,4658520,0
262,4659792,0
259,4661068,0
198,4662344,0
203,4663620,0
258,4664892,0
335,4666168,0
372,4667444,0
377,4668720,0
376,4669992,0
383,4671268,0
394,4672544,0
357,4673820,0
357,4675092,0
371,4676368,0
337,4677648,0
282,4678920,0
246,4680192,0
238,4681468,0
195,4682744,0
225,4684020,0
279,4685292,0
338,4686568,0
358,4687844,0
381,4689120,0
382,4690392,0
386,4691668,0
387,4692944,0
365,4694220,0
378,4695492,0
365,4696768,0
319,4698044,0
262,4699320,0
249,4700592,0
214,4701868,0
195,4703144,0
234,4704420,0
295,4705692,0
352,4706968,0
376,4708244,0
389,4709520,0
382,4710792,0
387,4712068,0
374,4713344,0
357,4714620,0
379,4715892,0
356,4717168,0
301,4718444,0
246,4719720,0
244,4720992,0
192,4722268,0
203,4723544,0
257,4724820,0
335,4726092,0
363,4727368,0
384,4728644,0
377,4729920,0
372,4731192,0
389,4732468,0
376,4733744,0
368,4735020,0
359,4736292,0
320,4737568,0
286,4738844,0
253,4740120,0
236,4741392,0
200,4742668,0
224,4743944,0
277,4745224,0
348,4746492,0
364,4747768,0
384,4749044,0
380,4750320,0
381,4751592,0
380,4752868,0
362,4754144,0
373,4755420,0
366,4756692,0
329,4757968,0
266,4759244,0
251,4760520,0
217,4761792,0
201,4763068,0
235,4764344,0
291,4765620,0
340,4766892,0
362,4768168,0
385,4769444,0
383,4770720,0
390,4771992,0
376,4773268,0
354,4774544,0
382,4775820,0
366,4777092,0
307,4778368,0
258,4779644,0
244,4780920,0
192,4782192,0
194,4783468,0
250,4784744,0
320,4786020,0
354,4787292,0
382,4788568,0
387,4789844,0
380,4791120,0
390,4792392,0
374,4793668,0
364,4794944,0
377,4796220,0
331,4797492,0
282,4798768,0
247,4800044,0
241,4801320,0
201,4802592,0
219,4803868,0
269,4805144,0
334,4806420,0
360,4807696,0
388,4808968,0
388,4810244,0
383,4811520,0
379,4812792,0
361,4814068,0
373,4815344,0
364,4816620,0
329,4817892,0
269,4819168,0
248,4820444,0
225,4821720,0
193,4822992,0
227,4824268,0
306,4825544,0
359,4826820,0
370,4828092,0
380,4829368,0
365,4830644,0
383,4831920,0
374,4833192,0
350,4834468,0
375,4835744,0
362,4837020,0
307,4838292,0
254,4839568,0
257,4840844,0
205,4842120,0
211,4843392,0
255,4844668,0
316,4845944,0
345,4847220,0
373,4848492,0
386,4849768,0
385,4851044,0
392,4852320,0
369,4853592,0
359,4854868,0
378,4856144,0
351,4857420,0
283,4858692,0
239,4859968,0
242,4861244,0
195,4862520,0
215,4863792,0
261,4865068,0
329,4866344,0
353,4867620,0
387,4868892,0
385,4870168,0
386,4871444,0
386,4872720,0
368,4873992,0
380,4875276,0
384,4876544,0
344,4877820,0
277,4879092,0
227,4880368,0
203,4881644,0
177,4882920,0
221,4884192,0
271,4885468,0
346,4886744,0
391,4888020,0
400,4889292,0
390,4890568,0
396,4891844,0
387,4893120,0
363,4894392,0
361,4895668,0
338,4896944,0
294,4898220,0
253,4899492,0
240,4900768,0
184,4902044,0
207,4903320,0
283,4904592,0
348,4905868,0
363,4907144,0
394,4908420,0
403,4909692,0
367,4910968,0
348,4912244,0
360,4913520,0
352,4914792,0
375,4916068,0
355,4917344,0
310,4918620,0
254,4919892,0
239,4921168,0
162,4922444,0
161,4923720,0
260,4924992,0
349,4926268,0
386,4927544,0
402,4928820,0
393,4930092,0
409,4931368,0
383,4932644,1
352,4933920,1
365,4935192,1
365,4936468,1
325,4937744,1
286,4939020,1
254,4940292,1
211,4941568,1
193,4942844,1
235,4944120,1
301,4945392,1
334,4946668,1
347,4947944,1
391,4949220,1
389,4950492,1
369,4951768,1
351,4953044,1
334,4954320,1
352,4955592,1
346,4956868,1
338,4958144,1
246,4959420,1
233,4960692,1
270,4961968,1
322,4963244,1
312,4964520,1
264,4965792,1
245,4967068,1
335,4968344,1
403,4969620,1
370,4970892,1
381,4972168,1
405,4973444,1
370,4974720,1
333,4975992,1
327,4977268,1
289,4978544,1
284,4979820,1
280,4981092,1
252,4982368,1
214,4983644,1
254,4984920,1
340,4986192,1
356,4987468,1
367,4988744,1
379,4990020,1
413,4991292,1
394,4992568,1
329,4993844,1
334,4995120,1
345,4996392,1
333,4997668,1
274,4998944,1
260,5000220,1
227,5001492,1
221,5002768,1
247,5004044,1
313,5005324,1
350,5006592,1
379,5007868,1
380,5009144,1
377,5010420,1
398,5011692,1
401,5012968,1
311,5014244,1
320,5015520,1
340,5016792,1
321,5018068,1
275,5019344,1
271,5020620,1
224,5021892,1
218,5023168,1
248,5024444,1
321,5025720,1
362,5026992,1
364,5028268,1
386,5029544,1
393,5030820,1
340,5032092,1
317,5033368,1
312,5034644,1
381,5035920,1
367,5037192,1
307,5038468,1
270,5039744,1
306,5041020,1
269,5042292,1
246,5043568,1
210,5044844,1
277,5046120,1
370,5047392,1
436,5048668,1
410,5049944,1
337,5051220,1
315,5052492,1
341,5053768,1
360,5055044,1
350,5056320,1
324,5057592,1
302,5058868,1
270,5060144,1
237,5061420,1
202,5062692,1
254,5063968,1
330,5065244,1
397,5066520,1
304,5067792,1
336,5069068,1
352,5070344,1
390,5071620,1
369,5072892,1
332,5074168,1
367,5075444,1
356,5076720,1
342,5077992,1
277,5079268,1
266,5080544,1
247,5081820,1
256,5083092,1
275,5084368,1
241,5085644,1
336,5086920,1
387,5088192,1
413,5089468,1
331,5090744,1
344,5092020,1
326,5093292,1
341,5094568,1
397,5095844,1
374,5097120,1
303,5098392,1
244,5099668,1
261,5100944,1
222,5102220,1
217,5103492,1
302,5104768,1
364,5106044,1
358,5107320,1
360,5108592,1
352,5109868,1
372,5111144,1
355,5112420,1
308,5113692,1
337,5114968,1
395,5116244,1
369,5117520,1
280,5118792,1
257,5120068,1
260,5121344,1
215,5122620,1
261,5123892,1
315,5125168,1
335,5126444,1
336,5127720,1
363,5128992,1
397,5130268,1
379,5131544,1
357,5132820,1
329,5134092,1
337,5135376,1
347,5136644,1
349,5137920,1
292,5139192,1
277,5140468,1
233,5141744,1
260,5143020,1
276,5144292,1
273,5145568,1
312,5146844,1
326,5148120,1
389,5149392,1
372,5150668,1
357,5151944,1
322,5153220,1
339,5154492,1
366,5155768,1
411,5157044,1
359,5158320,1
320,5159592,1
224,5160868,1
196,5162144,1
222,5163420,1
264,5164692,1
320,5165968,1
335,5167244,1
363,5168520,1
354,5169792,1
378,5171068,1
387,5172344,1
347,5173620,1
339,5174892,1
368,5176168,1
333,5177444,1
292,5178720,1
274,5179992,1
274,5181268,1
233,5182544,1
277,5183820,1
285,5185092,1
321,5186368,1
348,5187644,1
384,5188920,1
395,5190192,1
352,5191468,1
342,5192744,1
314,5194020,1
339,5195292,1
345,5196568,1
329,5197844,1
317,5199120,1
302,5200392,1
221,5201668,1
189,5202948,1
229,5204220,1
328,5205492,1
365,5206768,1
415,5208044,1
410,5209320,1
378,5210592,1
301,5211868,1
327,5213144,1
328,5214420,1
342,5215692,1
369,5216968,1
325,5218244,1
307,5219520,1
267,5220792,1
254,5222068,1
206,5223344,1
234,5224620,1
302,5225892,1
341,5227168,1
387,5228444,1
410,5229720,1
377,5230992,1
362,5232268,1
320,5233544,1
300,5234820,1
330,5236092,1
375,5237368,1
338,5238644,1
307,5239920,1
262,5241192,1
227,5242468,1
217,5243744,1
250,5245020,1
331,5246292,1
366,5247568,1
371,5248844,1
383,5250120,1
378,5251392,1
353,5252668,1
332,5253944,1
348,5255220,1
355,5256492,1
338,5257768,1
271,5259044,1
269,5260320,1
250,5261592,1
229,5262868,1
272,5264144,1
325,5265424,1
331,5266692,1
327,5267968,1
356,5269244,1
379,5270520,1
415,5271792,1
377,5273068,1
322,5274344,1
376,5275620,1
371,5276892,1
267,5278168,1
213,5279444,1
237,5280720,1
225,5281992,1
286,5283268,1
305,5284544,1
323,5285820,1
317,5287092,1
383,5288368,1
347,5289644,1
399,5290920,1
385,5292192,1
376,5293468,1
333,5294744,1
355,5296020,1
341,5297292,1
257,5298568,1
242,5299844,1
272,5301120,1
244,5302392,1
226,5303668,1
242,5304944,1
336,5306220,1
402,5307492,1
398,5308768,1
362,5310044,1
348,5311320,1
348,5312592,1
351,5313868,1
381,5315144,1
393,5316420,1
317,5317692,1
262,5318968,1
262,5320244,1
249,5321520,1
217,5322792,1
246,5324068,1
298,5325344,1
352,5326620,1
363,5327892,1
372,5329168,1
364,5330444,1
386,5331720,1
366,5333000,1
346,5334268,1
363,5335544,1
354,5336820,1
315,5338092,1
272,5339368,1
252,5340644,1
210,5341920,1
232,5343192,1
266,5344468,1
320,5345744,1
326,5347020,1
432,5348292,1
383,5349568,1
328,5350844,1
306,5352120,1
365,5353392,1
381,5354668,1
443,5355944,1
344,5357220,1
239,5358492,1
240,5359768,1
254,5361044,1
242,5362320,1
284,5363592,1
279,5364868,1
279,5366144,1
314,5367420,1
351,5368692,1
399,5369968,1
398,5371244,1
375,5372520,1
305,5373792,1
324,5375068,1
360,5376344,1
335,5377620,1
336,5378892,1
316,5380168,1
255,5381444,1
205,5382720,1
236,5383992,1
320,5385268,1
377,5386544,1
350,5387820,1
343,5389092,1
329,5390368,1
383,5391644,1
364,5392920,1
341,5394192,1
337,5395472,1
374,5396744,1
336,5398020,1
274,5399292,1
251,5400568,1
226,5401844,1
224,5403120,1
286,5404392,1
346,5405668,1
348,5406944,1
338,5408220,1
361,5409492,1
355,5410768,1
359,5412044,1
353,5413320,1
336,5414592,1
371,5415868,1
357,5417144,1
305,5418420,1
260,5419692,1
309,5420968,1
221,5422244,1
207,5423520,1
248,5424792,1
338,5426068,1
331,5427344,1
354,5428620,1
370,5429892,1
405,5431168,1
337,5432444,1
336,5433720,1
363,5434992,1
394,5436268,1
369,5437544,1
285,5438820,1
271,5440092,1
288,5441368,1
195,5442644,1
202,5443920,1
280,5445192,1
365,5446468,1
346,5447744,1
351,5449020,1
358,5450292,1
367,5451568,1
391,5452844,1
363,5454120,1
364,5455392,1
333,5456668,1
320,5457944,1
280,5459220,1
257,5460492,1
235,5461768,1
228,5463048,1
258,5464320,1
306,5465592,1
346,5466868,1
393,5468144,1
404,5469420,1
373,5470692,1
364,5471968,1
356,5473244,1
321,5474520,1
349,5475792,1
340,5477068,1
310,5478344,1
272,5479620,1
272,5480892,1
226,5482168,1
228,5483444,1
269,5484720,1
329,5485992,1
357,5487268,1
369,5488544,1
351,5489820,1
351,5491092,1
388,5492368,1
374,5493644,1
330,5494920,1
326,5496192,1
335,5497468,1
353,5498744,1
276,5500020,1
245,5501292,1
162,5502568,1
247,5503844,1
304,5505120,1
374,5506392,1
358,5507668,1
369,5508944,1
385,5510220,1
348,5511492,1
386,5512768,1
360,5514044,1
338,5515320,1
309,5516592,1
319,5517868,1
291,5519144,1
315,5520420,1
256,5521692,1
192,5522968,1
252,5524244,1
268,5525520,1
297,5526792,1
365,5528068,1
403,5529344,1
378,5530620,1
379,5531892,1
395,5533168,1
352,5534444,1
365,5535720,1
280,5536992,1
299,5538268,1
288,5539544,1
282,5540820,1
226,5542092,1
196,5543368,1
274,5544644,1
348,5545920,1
362,5547192,1
383,5548468,1
404,5549744,1
384,5551020,1
350,5552292,1
326,5553568,1
325,5554844,1
357,5556120,1
350,5557392,1
308,5558668,1
253,5559944,1
278,5561220,1
212,5562492,1
242,5563768,1
274,5565044,1
356,5566320,1
375,5567592,1
385,5568868,1
337,5570144,1
341,5571420,1
348,5572692,1
311,5573968,1
349,5575244,1
383,5576520,1
366,5577792,1
342,5579068,1
296,5580344,1
190,5581620,1
166,5582892,1
268,5584168,1
302,5585444,1
348,5586720,1
437,5587992,1
387,5589268,1
365,5590544,1
368,5591820,1
329,5593100,1
279,5594368,1
323,5595644,1
372,5596920,1
350,5598192,1
272,5599468,1
234,5600744,1
239,5602020,1
214,5603292,1
272,5604568,1
346,5605844,1
371,5607120,1
385,5608392,1
366,5609668,1
332,5610944,1
352,5612220,1
363,5613492,1
377,5614768,1
372,5616044,1
335,5617320,1
281,5618592,1
256,5619868,1
256,5621144,1
211,5622420,1
241,5623692,1
301,5624968,1
374,5626244,1
333,5627520,1
338,5628792,1
377,5630068,1
394,5631344,1
362,5632620,1
344,5633892,1
364,5635168,1
372,5636444,1
343,5637720,1
267,5638992,1
238,5640268,1
226,5641544,1
216,5642820,1
250,5644092,1
315,5645368,1
353,5646644,1
362,5647920,1
351,5649192,1
366,5650468,1
425,5651744,1
402,5653020,1
327,5654292,1
383,5655568,1
329,5656844,1
256,5658120,1
259,5659392,1
293,5660668,1
235,5661944,1
231,5663220,1
223,5664492,1
304,5665768,1
392,5667044,1
410,5668320,1
388,5669592,1
327,5670868,1
347,5672144,1
373,5673420,1
351,5674692,1
340,5675968,1
345,5677244,1
305,5678520,1
241,5679792,1
252,5681068,1
237,5682344,1
274,5683620,1
283,5684892,1
338,5686168,1
343,5687444,1
381,5688720,1
370,5689992,1
361,5691268,1
347,5692544,1
344,5693820,1
411,5695092,1
385,5696368,1
319,5697644,1
259,5698920,1
235,5700192,1
195,5701468,1
221,5702744,1
304,5704020,1
311,5705292,1
342,5706568,1
359,5707844,1
373,5709120,1
372,5710392,1
367,5711668,1
353,5712944,1
336,5714220,1
365,5715492,1
361,5716768,1
336,5718044,1
289,5719320,1
256,5720592,1
194,5721868,1
207,5723148,1
249,5724420,1
299,5725692,1
368,5726968,1
388,5728244,1
408,5729520,1
439,5730792,1
385,5732068,1
292,5733344,1
275,5734620,1
369,5735892,1
366,5737168,1
305,5738444,1
253,5739720,1
243,5740992,1
204,5742268,1
250,5743544,1
264,5744820,1
350,5746092,1
342,5747368,1
331,5748644,1
359,5749920,1
455,5751192,1
428,5752468,1
362,5753744,1
336,5755020,1
345,5756292,1
332,5757568,1
282,5758844,1
261,5760120,1
284,5761392,1
275,5762668,1
242,5763944,1
208,5765220,1
248,5766492,1
373,5767768,1
389,5769044,1
366,5770320,1
386,5771592,1
383,5772868,1
347,5774144,1
362,5775420,1
356,5776692,1
330,5777968,1
287,5779244,1
256,5780520,1
213,5781792,1
225,5783068,1
262,5784344,1
326,5785620,1
341,5786892,1
360,5788168,1
380,5789444,1
393,5790720,1
374,5791992,1
349,5793268,1
330,5794544,1
358,5795820,1
353,5797092,1
304,5798368,1
270,5799644,1
253,5800920,1
189,5802192,1
240,5803468,1
308,5804744,1
406,5806020,1
396,5807292,1
346,5808568,1
297,5809844,1
337,5811120,1
393,5812392,1
370,5813668,1
326,5814944,1
333,5816220,1
319,5817492,1
286,5818768,1
232,5820044,1
233,5821320,1
247,5822592,1
261,5823868,1
285,5825144,1
445,5826420,1
428,5827692,1
359,5828968,1
294,5830244,1
366,5831520,1
349,5832792,1
308,5834068,1
366,5835344,1
377,5836620,1
328,5837892,1
271,5839168,1
260,5840444,1
232,5841720,1
225,5842992,1
237,5844268,1
333,5845544,1
377,5846820,1
394,5848092,1
362,5849368,1
360,5850644,1
361,5851920,1
327,5853200,1
316,5854468,1
355,5855744,1
357,5857020,1
315,5858292,1
275,5859568,1
266,5860844,1
216,5862120,1
233,5863392,1
277,5864668,1
342,5865944,1
369,5867220,1
357,5868492,1
345,5869768,1
347,5871044,1
394,5872320,1
399,5873592,1
337,5874868,1
361,5876144,1
333,5877420,1
296,5878692,1
267,5879968,1
254,5881244,1
194,5882520,1
233,5883792,1
290,5885068,1
346,5886344,1
358,5887620,1
379,5888892,1
376,5890168,1
372,5891444,1
370,5892720,1
352,5893992,1
376,5895268,1
331,5896544,1
324,5897820,1
297,5899092,1
265,5900368,1
217,5901644,1
246,5902920,1
250,5904192,1
295,5905468,1
313,5906744,1
351,5908020,1
391,5909292,1
374,5910568,1
395,5911844,1
361,5913120,1
332,5914392,1
363,5915668,1
361,5916944,1
317,5918220,1
270,5919492,1
242,5920776,1
208,5922044,1
222,5923320,1
267,5924592,1
329,5925868,1
359,5927144,1
382,5928420,1
380,5929692,1
359,5930968,1
369,5932244,1
367,5933520,1
349,5934792,1
382,5936068,1
333,5937344,1
272,5938620,1
251,5939892,1
248,5941168,1
213,5942444,1
239,5943720,1
292,5944992,1
341,5946268,1
358,5947544,1
381,5948820,1
359,5950092,1
358,5951368,1
383,5952644,1
356,5953920,1
310,5955192,1
379,5956468,1
357,5957744,1
312,5959020,1
262,5960292,1
235,5961568,1
224,5962844,1
248,5964120,1
296,5965392,1
344,5966668,1
377,5967944,1
388,5969220,1
352,5970492,1
333,5971768,1
340,5973044,1
385,5974320,1
409,5975592,1
361,5976868,1
261,5978144,1
228,5979420,1
240,5980692,1
224,5981968,1
234,5983248,1
275,5984520,1
339,5985792,1
364,5987068,1
378,5988344,1
378,5989620,1
351,5990892,1
375,5992168,1
357,5993444,1
381,5994720,1
360,5995992,1
334,5997268,1
288,5998544,1
256,5999820,1
248,6001092,1
205,6002368,1
238,6003644,1
281,6004920,1
345,6006192,1
367,6007468,1
374,6008744,1
366,6010020,1
370,6011292,1
371,6012568,1
347,6013844,1
352,6015120,1
365,6016392,1
335,6017668,1
289,6018944,1
265,6020220,1
232,6021492,1
223,6022768,1
262,6024044,1
287,6025320,1
295,6026592,1
372,6027868,1
431,6029144,1
387,6030420,1
338,6031692,1
326,6032968,1
336,6034244,1
338,6035520,1
350,6036792,1
372,6038068,1
331,6039344,1
284,6040620,1
186,6041892,1
235,6043168,1
260,6044444,1
311,6045720,1
330,6046992,1
352,6048268,1
358,6049544,1
364,6050824,1
369,6052092,1
350,6053368,1
351,6054644,1
398,6055920,1
374,6057192,1
288,6058468,1
255,6059744,1
244,6061020,1
203,6062292,1
210,6063568,1
276,6064844,1
359,6066120,1
383,6067392,1
376,6068668,1
366,6069944,1
365,6071220,1
364,6072492,1
349,6073768,1
358,6075044,1
371,6076320,1
339,6077592,1
282,6078868,1
256,6080144,1
244,6081420,1
207,6082692,1
223,6083968,1
280,6085244,1
368,6086520,1
380,6087792,1
392,6089068,1
361,6090344,1
373,6091620,1
357,6092892,1
336,6094168,1
359,6095444,1
365,6096720,1
330,6097992,1
274,6099268,1
252,6100544,1
201,6101820,1
215,6103092,1
261,6104368,1
305,6105644,1
371,6106920,1
355,6108192,1
410,6109468,1
370,6110744,1
362,6112020,1
362,6113296,1
346,6114568,1
369,6115844,1
343,6117120,1
294,6118392,1
259,6119668,1
251,6120944,1
199,6122220,1
217,6123492,1
264,6124768,1
348,6126044,1
366,6127320,1
404,6128592,1
392,6129868,1
370,6131144,1
362,6132420,1
347,6133692,1
344,6134968,1
362,6136244,1
331,6137520,1
285,6138792,1
253,6140068,1
239,6141344,1
202,6142620,1
225,6143892,1
287,6145168,1
357,6146444,1
375,6147720,1
393,6148992,1
384,6150268,1
380,6151544,1
367,6152820,1
335,6154092,1
367,6155368,1
365,6156644,1
323,6157920,1
270,6159192,1
254,6160468,1
210,6161744,1
193,6163020,1
243,6164292,1
322,6165568,1
371,6166844,1
385,6168120,1
387,6169392,1
371,6170668,1
379,6171944,1
360,6173220,1
338,6174492,1
367,6175768,1
355,6177044,1
300,6178320,1
258,6179592,1
247,6180876,1
203,6182144,1
214,6183420,1
264,6184692,1
336,6185968,1
369,6187244,1
393,6188520,1
386,6189792,1
376,6191068,1
375,6192344,1
358,6193620,1
356,6194892,1
370,6196168,1
337,6197444,1
279,6198720,1
249,6199992,1
237,6201268,1
194,6202544,1
215,6203820,1
276,6205092,1
343,6206368,1
366,6207644,1
397,6208920,1
391,6210192,1
392,6211468,1
395,6212744,1
372,6214020,1
381,6215292,1
380,6216568,1
333,6217844,1
255,6219120,1
239,6220392,1
205,6221668,1
187,6222944,1
226,6224220,1
298,6225492,1
355,6226768,1
376,6228044,1
388,6229320,1
379,6230592,1
388,6231868,1
378,6233144,1
370,6234420,1
388,6235692,1
365,6236968,1
306,6238244,1
254,6239520,1
235,6240792,1
180,6242068,1
196,6243344,1
247,6244620,1
316,6245892,1
358,6247168,1
386,6248444,1
392,6249720,1
387,6250992,1
391,6252268,1
373,6253544,1
363,6254820,1
380,6256092,1
348,6257368,1
294,6258644,1
250,6259920,1
241,6261192,1
188,6262468,1
206,6263744,1
267,6265020,1
336,6266292,1
360,6267568,1
389,6268844,1
388,6270120,1
396,6271392,1
398,6272668,1
372,6273944,1
377,6275220,1
360,6276492,1
330,6277768,1
269,6279044,1
248,6280320,1
215,6281592,1
193,6282868,1
227,6284144,1
290,6285420,1
346,6286692,1
371,6287968,1
392,6289244,1
386,6290520,1
396,6291792,1
387,6293068,1
360,6294344,1
381,6295620,1
361,6296892,1
306,6298168,1
252,6299444,1
242,6300720,1
194,6301992,1
194,6303268,1
244,6304544,1
306,6305820,1
349,6307092,1
381,6308368,1
388,6309644,1
382,6310924,1
390,6312192,1
374,6313468,0
365,6314744,0
386,6316020,0
363,6317292,0
286,6318568,0
242,6319844,0
222,6321120,0
177,6322392,0
206,6323668,0
262,6324944,0
336,6326220,0
362,6327492,0
388,6328768,0
382,6330044,0
378,6331320,0
378,6332592,0
365,6333868,0
398,6335144,0
381,6336420,0
342,6337692,0
276,6338968,0
240,6340244,0
188,6341520,0
167,6342792,0
215,6344068,0
291,6345344,0
348,6346620,0
368,6347892,0
393,6349168,0
385,6350444,0
391,6351720,0
382,6352992,0
357,6354268,0
384,6355544,0
364,6356820,0
312,6358092,0
253,6359368,0
241,6360644,0
193,6361920,0
193,6363192,0
244,6364468,0
313,6365744,0
352,6367020,0
378,6368292,0
391,6369568,0
383,6370844,0
388,6372120,0
373,6373392,0
363,6374668,0
381,6375944,0
347,6377220,0
289,6378492,0
246,6379768,0
238,6381044,0
185,6382320,0
209,6383592,0
258,6384868,0
327,6386144,0
351,6387420,0
386,6388692,0
387,6389968,0
387,6391244,0
392,6392520,0
373,6393792,0
375,6395068,0
375,6396344,0
334,6397620,0
272,6398892,0
244,6400168,0
216,6401444,0
192,6402720,0
221,6403992,0
283,6405268,0
341,6406544,0
359,6407820,0
386,6409092,0
381,6410368,0
393,6411644,0
385,6412920,0
358,6414192,0
381,6415468,0
363,6416744,0
307,6418020,0
260,6419292,0
244,6420568,0
205,6421844,0
209,6423120,0
256,6424392,0
315,6425668,0
350,6426944,0
379,6428220,0
376,6429492,0
363,6430768,0
372,6432044,0
355,6433320,0
339,6434592,0
365,6435868,0
353,6437144,0
310,6438420,0
257,6439692,0
248,6440976,0
204,6442244,0
221,6443520,0
270,6444792,0
339,6446068,0
363,6447344,0
380,6448620,0
374,6449892,0
369,6451168,0
368,6452444,0
351,6453720,0
358,6454992,0
364,6456268,0
335,6457544,0
285,6458820,0
261,6460092,0
243,6461368,0
216,6462644,0
237,6463920,0
292,6465192,0
347,6466468,0
366,6467744,0
382,6469020,0
369,6470292,0
374,6471568,0
361,6472844,0
337,6474120,0
367,6475392,0
361,6476668,0
322,6477944,0
270,6479220,0
257,6480492,0
222,6481768,0
219,6483044,0
259,6484320,0
321,6485592,0
354,6486868,0
369,6488144,0
372,6489420,0
371,6490692,0
369,6491968,0
354,6493244,0
344,6494520,0
370,6495792,0
361,6497068,0
312,6498344,0
262,6499620,0
240,6500892,0
184,6502168,0
217,6503444,0
285,6504720,0
343,6505992,0
366,6507268,0
380,6508548,0
369,6509820,0
374,6511092,0
384,6512368,0
355,6513644,0
351,6514920,0
355,6516192,0
327,6517468,0
279,6518744,0
258,6520020,0
253,6521292,0
225,6522568,0
238,6523844,0
286,6525120,0
346,6526392,0
371,6527668,0
382,6528944,0
371,6530220,0
376,6531492,0
362,6532768,0
341,6534044,0
365,6535320,0
361,6536592,0
321,6537868,0
266,6539144,0
254,6540420,0
222,6541692,0
216,6542968,0
257,6544244,0
313,6545520,0
354,6546792,0
369,6548068,0
378,6549344,0
368,6550620,0
375,6551892,0
363,6553168,0
342,6554444,0
370,6555720,0
355,6556992,0
303,6558268,0
249,6559544,0
252,6560820,0
210,6562092,0
224,6563368,0
269,6564644,0
333,6565920,0
362,6567192,0
382,6568468,0
377,6569744,0
366,6571024,0
372,6572292,0
357,6573568,0
352,6574844,0
368,6576120,0
338,6577392,0
285,6578668,0
253,6579944,0
247,6581220,0
211,6582492,0
237,6583768,0
286,6585044,0
356,6586320,0
369,6587592,0
375,6588868,0
365,6590144,0
372,6591420,0
361,6592692,0
335,6593968,0
359,6595244,0
368,6596520,0
331,6597792,0
270,6599068,0
247,6600344,0
224,6601620,0
219,6602892,0
258,6604168,0
312,6605444,0
352,6606720,0
372,6607992,0
384,6609268,0
380,6610544,0
377,6611820,0
369,6613092,0
335,6614368,0
362,6615644,0
346,6616920,0
305,6618192,0
264,6619468,0
255,6620744,0
207,6622020,0
221,6623292,0
267,6624568,0
330,6625844,0
358,6627120,0
371,6628392,0
372,6629668,0
369,6630944,0
372,6632220,0
360,6633492,0
360,6634768,0
369,6636044,0
337,6637320,0
289,6638600,0
256,6639868,0
248,6641144,0
210,6642420,0
229,6643692,0
277,6644968,0
344,6646244,0
369,6647520,0
387,6648792,0
372,6650068,0
368,6651344,0
361,6652620,0
343,6653892,0
362,6655168,0
362,6656444,0
327,6657720,0
276,6658992,0
261,6660268,0
236,6661544,0
218,6662820,0
249,6664092,0
303,6665368,0
347,6666644,0
361,6667920,0
377,6669192,0
380,6670468,0
376,6671744,0
359,6673020,0
333,6674292,0
363,6675568,0
357,6676844,0
315,6678120,0
266,6679392,0
258,6680668,0
215,6681944,0
217,6683220,0
256,6684492,0
324,6685768,0
353,6687044,0
366,6688320,0
377,6689592,0
383,6690868,0
382,6692144,0
372,6693420,0
347,6694692,0
370,6695968,0
331,6697244,0
282,6698520,0
246,6699792,0
249,6701072,0
209,6702344,0
235,6703620,0
282,6704892,0
342,6706168,0
366,6707444,0
380,6708720,0
373,6709992,0
371,6711268,0
363,6712544,0
354,6713820,0
376,6715092,0
374,6716368,0
335,6717644,0
272,6718920,0
249,6720192,0
223,6721468,0
199,6722744,0
233,6724020,0
293,6725292,0
349,6726568,0
373,6727844,0
389,6729120,0
382,6730392,0
388,6731668,0
379,6732944,0
350,6734220,0
373,6735492,0
362,6736768,0
316,6738044,0
261,6739320,0
251,6740592,0
203,6741868,0
195,6743144,0
239,6744420,0
305,6745692,0
359,6746968,0
390,6748244,0
396,6749520,0
377,6750792,0
371,6752068,0
358,6753344,0
348,6754620,0
385,6755892,0
342,6757168,0
294,6758444,0
252,6759720,0
254,6760992,0
196,6762268,0
233,6763544,0
284,6764820,0
336,6766092,0
327,6767368,0
380,6768648,0
359,6769920,0
366,6771192,0
370,6772468,0
362,6773744,0
397,6775020,0
358,6776292,0
305,6777568,0
258,6778844,0
262,6780120,0
257,6781392,0
216,6782668,0
216,6783944,0
280,6785220,0
366,6786492,0
405,6787768,0
374,6789044,0
371,6790320,0
393,6791592,0
366,6792868,0
319,6794144,0
348,6795420,0
349,6796692,0
299,6797968,0
260,6799244,0
263,6800520,0
234,6801792,0
237,6803068,0
267,6804344,0
326,6805620,0
356,6806892,1
374,6808168,1
376,6809444,1
364,6810720,1
374,6811992,1
363,6813268,1
330,6814544,1
360,6815820,1
358,6817092,1
305,6818368,1
246,6819644,1
237,6820920,1
218,6822192,1
239,6823468,1
309,6824744,1
334,6826020,1
346,6827292,1
378,6828568,1
382,6829844,1
372,6831120,1
380,6832392,1
351,6833668,1
341,6834944,1
326,6836220,1
295,6837492,1
299,6838768,1
268,6840044,1
268,6841320,1
233,6842592,1
253,6843868,1
298,6845144,1
338,6846420,1
351,6847692,1
359,6848968,1
360,6850244,1
341,6851520,1
358,6852792,1
389,6854068,1
394,6855344,1
371,6856620,1
336,6857892,1
281,6859168,1
228,6860444,1
189,6861720,1
226,6862992,1
291,6864268,1
337,6865544,1
357,6866820,1
366,6868092,1
366,6869368,1
358,6870644,1
366,6871920,1
347,6873192,1
317,6874468,1
369,6875744,1
373,6877020,1
333,6878292,1
252,6879568,1
255,6880844,1
217,6882120,1
222,6883392,1
264,6884668,1
321,6885944,1
363,6887220,1
412,6888492,1
419,6889768,1
352,6891044,1
307,6892320,1
329,6893592,1
373,6894868,1
362,6896144,1
311,6897420,1
250,6898700,1
262,6899968,1
266,6901244,1
218,6902520,1
238,6903792,1
310,6905068,1
383,6906344,1
382,6907620,1
385,6908892,1
364,6910168,1
373,6911444,1
376,6912720,1
307,6913992,1
291,6915268,1
342,6916544,1
405,6917820,1
323,6919092,1
257,6920368,1
209,6921644,1
265,6922920,1
285,6924192,1
295,6925468,1
253,6926744,1
354,6928020,1
390,6929292,1
392,6930568,1
373,6931844,1
344,6933120,1
335,6934392,1
364,6935668,1
351,6936944,1
308,6938220,1
270,6939492,1
252,6940768,1
220,6942044,1
224,6943320,1
277,6944592,1
358,6945868,1
376,6947144,1
383,6948420,1
356,6949692,1
344,6950968,1
371,6952244,1
344,6953520,1
326,6954792,1
358,6956068,1
359,6957344,1
334,6958620,1
247,6959892,1
231,6961168,1
213,6962444,1
243,6963720,1
290,6964992,1
352,6966268,1
363,6967544,1
357,6968820,1
373,6970092,1
393,6971368,1
401,6972644,1
319,6973920,1
299,6975192,1
341,6976468,1
328,6977744,1
282,6979020,1
261,6980292,1
238,6981568,1
244,6982844,1
298,6984120,1
318,6985392,1
326,6986668,1
347,6987944,1
346,6989220,1
361,6990492,1
391,6991768,1
331,6993044,1
349,6994320,1
400,6995592,1
399,6996868,1
253,6998144,1
254,6999420,1
291,7000692,1
230,7001968,1
216,7003244,1
290,7004520,1
345,7005792,1
352,7007068,1
345,7008344,1
347,7009620,1
354,7010892,1
363,7012168,1
352,7013444,1
350,7014720,1
356,7015992,1
337,7017268,1
308,7018544,1
336,7019820,1
235,7021092,1
192,7022368,1
240,7023644,1
293,7024920,1
340,7026192,1
355,7027468,1
373,7028748,1
367,7030020,1
368,7031292,1
366,7032568,1
329,7033844,1
354,7035120,1
361,7036392,1
336,7037668,1
273,7038944,1
236,7040220,1
281,7041492,1
266,7042768,1
248,7044044,1
271,7045320,1
323,7046592,1
371,7047868,1
404,7049144,1
370,7050420,1
362,7051692,1
341,7052968,1
330,7054244,1
362,7055520,1
364,7056792,1
322,7058068,1
273,7059344,1
262,7060620,1
220,7061892,1
222,7063168,1
260,7064444,1
323,7065720,1
396,7066992,1
408,7068268,1
380,7069544,1
326,7070820,1
351,7072092,1
339,7073368,1
322,7074644,1
336,7075920,1
340,7077192,1
312,7078468,1
263,7079744,1
264,7081020,1
225,7082292,1
249,7083568,1
295,7084844,1
364,7086120,1
400,7087392,1
396,7088668,1
311,7089944,1
319,7091220,1
371,7092492,1
343,7093768,1
362,7095044,1
383,7096320,1
350,7097592,1
296,7098868,1
247,7100144,1
240,7101420,1
225,7102692,1
249,7103968,1
309,7105244,1
344,7106520,1
354,7107792,1
364,7109068,1
361,7110344,1
366,7111620,1
355,7112892,1
335,7114168,1
360,7115444,1
352,7116720,1
319,7117992,1
275,7119268,1
271,7120544,1
229,7121820,1
229,7123092,1
273,7124368,1
335,7125644,1
364,7126920,1
373,7128192,1
355,7129468,1
348,7130744,1
360,7132020,1
349,7133292,1
340,7134568,1
355,7135844,1
344,7137120,1
304,7138392,1
269,7139668,1
264,7140944,1
217,7142220,1
240,7143492,1
286,7144768,1
346,7146044,1
362,7147320,1
372,7148592,1
361,7149868,1
361,7151144,1
364,7152420,1
346,7153692,1
355,7154968,1
363,7156244,1
330,7157520,1
286,7158800,1
269,7160068,1
249,7161344,1
226,7162620,1
247,7163892,1
301,7165168,1
354,7166444,1
362,7167720,1
367,7168992,1
355,7170268,1
364,7171544,1
353,7172820,1
346,7174092,1
374,7175368,1
362,7176644,1
314,7177920,1
268,7179192,1
269,7180468,1
221,7181744,1
227,7183020,1
251,7184292,1
317,7185568,1
360,7186844,1
380,7188120,1
384,7189392,1
366,7190668,1
361,7191944,1
340,7193220,1
334,7194492,1
371,7195768,1
354,7197044,1
305,7198320,1
263,7199592,1
263,7200868,1
220,7202144,1
233,7203420,1
281,7204692,1
343,7205968,1
368,7207244,1
380,7208520,1
356,7209792,1
361,7211068,1
368,7212344,1
349,7213620,1
358,7214892,1
363,7216168,1
333,7217444,1
285,7218720,1
258,7219992,1
252,7221268,1
207,7222544,1
229,7223820,1
276,7225092,1
329,7226376,1
379,7227644,1
405,7228920,1
395,7230192,1
392,7231468,1
378,7232744,1
360,7234020,1
381,7235292,1
370,7236568,1
313,7237844,1
259,7239120,1
242,7240392,1
210,7241668,1
205,7242944,1
248,7244220,1
313,7245492,1
357,7246768,1
374,7248044,1
379,7249320,1
371,7250592,1
383,7251868,1
375,7253144,1
356,7254420,1
372,7255692,1
353,7256968,1
302,7258244,1
256,7259520,0
251,7260792,0
200,7262068,0
219,7263344,0
260,7264620,0
328,7265892,0
352,7267168,0
377,7268444,0
382,7269720,0
379,7270992,0
384,7272268,0
366,7273544,0
363,7274820,0
369,7276092,0
331,7277368,0
278,7278644,0
249,7279920,0
240,7281192,0
204,7282468,0
225,7283744,0
270,7285020,0
341,7286292,0
373,7287568,0
393,7288848,0
391,7290120,0
382,7291392,0
369,7292668,0
340,7293944,0
361,7295220,0
350,7296492,0
314,7297768,0
270,7299044,0
262,7300320,0
211,7301592,0
198,7302868,0
242,7304144,0
295,7305420,0
342,7306692,0
371,7307968,0
397,7309244,0
391,7310520,0
397,7311792,0
373,7313068,0
345,7314344,0
370,7315620,0
352,7316892,0
301,7318168,0
255,7319444,0
247,7320720,0
201,7321992,0
215,7323268,0
272,7324544,0
328,7325820,0
346,7327092,0
369,7328368,0
383,7329644,0
369,7330920,0
383,7332192,0
369,7333468,0
357,7334744,0
365,7336020,0
336,7337292,0
282,7338568,0
258,7339844,0
241,7341120,0
197,7342392,0
223,7343668,0
275,7344944,0
336,7346220,0
366,7347492,0
383,7348768,0
380,7350044,0
379,7351320,0
379,7352592,0
361,7353868,0
373,7355144,0
362,7356424,0
325,7357692,0
268,7358968,0
248,7360244,0
234,7361520,0
202,7362792,0
237,7364068,0
278,7365344,0
329,7366620,0
361,7367892,0
390,7369168,0
380,7370444,0
385,7371720,0
383,7372992,0
345,7374268,0
366,7375544,0
347,7376820,0
307,7378092,0
254,7379368,0
243,7380644,0
211,7381920,0
239,7383192,0
283,7384468,0
328,7385744,0
342,7387020,0
364,7388292,0
357,7389568,0
361,7390844,0
368,7392120,0
358,7393392,0
353,7394668,0
365,7395944,0
340,7397220,0
293,7398492,0
256,7399768,0
253,7401044,0
219,7402320,0
248,7403592,0
292,7404868,0
342,7406144,0
358,7407420,0
365,7408692,0
369,7409968,0
368,7411244,0
361,7412520,0
346,7413792,0
362,7415068,0
358,7416344,0
323,7417620,0
276,7418896,0
260,7420168,0
239,7421444,0
224,7422720,0
255,7423992,0
300,7425268,0
358,7426544,0
385,7427820,0
387,7429092,0
355,7430368,0
353,7431644,0
349,7432920,0
330,7434192,0
368,7435468,0
355,7436744,0
312,7438020,0
265,7439292,0
261,7440568,0
223,7441844,0
228,7443120,0
272,7444392,0
332,7445668,0
358,7446944,0
373,7448220,0
368,7449492,0
362,7450768,0
370,7452044,0
358,7453320,0
345,7454592,0
361,7455868,0
345,7457144,0
293,7458420,0
255,7459692,0
249,7460968,0
211,7462244,0
241,7463520,0
286,7464792,0
352,7466068,0
367,7467344,0
378,7468620,0
368,7469892,0
366,7471168,0
360,7472444,0
342,7473720,0
355,7474992,0
358,7476268,0
328,7477544,0
289,7478820,0
265,7480092,0
238,7481368,0
213,7482644,0
249,7483920,0
293,7485192,0
334,7486476,0
360,7487744,0
385,7489020,0
378,7490292,0
375,7491568,0
361,7492844,0
340,7494120,0
366,7495392,0
351,7496668,0
308,7497944,0
260,7499220,0
254,7500492,0
230,7501768,0
240,7503044,0
280,7504320,0
316,7505592,0
351,7506868,0
368,7508144,0
371,7509420,0
363,7510692,0
373,7511968,0
358,7513244,0
351,7514520,0
367,7515792,0
335,7517068,0
287,7518344,0
255,7519620,0
259,7520892,0
220,7522168,0
239,7523444,0
280,7524720,0
329,7525992,0
366,7527268,0
391,7528544,0
381,7529820,0
357,7531092,0
360,7532368,0
345,7533644,0
354,7534920,0
362,7536192,0
333,7537468,0
284,7538744,0
256,7540020,0
234,7541292,0
212,7542568,0
247,7543844,0
289,7545120,0
343,7546392,0
366,7547668,0
385,7548944,0
379,7550220,0
384,7551492,0
376,7552768,0
356,7554044,0
382,7555320,0
356,7556592,0
301,7557868,0
255,7559144,0
264,7560420,0
215,7561692,0
209,7562968,0
249,7564244,0
309,7565520,0
352,7566792,0
369,7568068,0
377,7569344,0
374,7570620,0
387,7571892,0
378,7573168,0
359,7574444,0
372,7575720,0
345,7576992,0
294,7578268,0
251,7579544,0
251,7580820,0
199,7582092,0
224,7583368,0
263,7584644,0
324,7585920,0
359,7587192,0
382,7588468,0
381,7589744,0
376,7591020,0
380,7592292,0
367,7593568,0
359,7594844,0
362,7596120,0
329,7597392,0
281,7598668,0
252,7599944,0
232,7601220,0
201,7602492,0
232,7603768,0
284,7605044,0
342,7606320,0
365,7607592,0
385,7608868,0
380,7610144,0
384,7611420,0
377,7612692,0
354,7613968,0
372,7615244,0
360,7616524,0
318,7617792,0
265,7619068,0
251,7620344,0
211,7621620,0
207,7622892,0
253,7624168,0
310,7625444,0
348,7626720,0
362,7627992,0
382,7629268,0
373,7630544,0
393,7631820,0
392,7633092,0
352,7634368,0
368,7635644,0
335,7636920,0
289,7638192,0
244,7639468,0
245,7640744,0
215,7642020,0
225,7643292,0
271,7644568,0
318,7645844,0
352,7647120,0
377,7648392,0
379,7649668,0
383,7650944,0
392,7652220,0
376,7653492,0
365,7654768,0
353,7656044,0
333,7657320,0
328,7658592,0
281,7659868,0
213,7661144,0
133,7662420,0
198,7663692,0
278,7664968,0
334,7666244,0
365,7667520,0
390,7668792,0
407,7670068,0
405,7671344,0
376,7672620,0
354,7673892,0
358,7675168,0
353,7676444,0
315,7677720,0
265,7678992,0
270,7680268,0
276,7681544,0
239,7682820,0
225,7684092,0
258,7685368,0
327,7686644,0
374,7687920,0
402,7689192,0
366,7690468,0
361,7691744,0
352,7693020,0
368,7694292,0
398,7695568,0
360,7696844,0
282,7698120,0
247,7699392,0
249,7700668,0
220,7701944,0
252,7703220,0
270,7704492,0
313,7705768,0
335,7707044,0
359,7708320,0
336,7709592,0
393,7710868,0
407,7712144,1
352,7713420,1
327,7714692,1
348,7715968,1
296,7717244,1
293,7718520,1
314,7719792,1
282,7721068,1
200,7722344,1
222,7723620,1
286,7724892,1
370,7726168,1
388,7727444,1
399,7728720,1
350,7729992,1
360,7731268,1
347,7732544,1
336,7733820,1
357,7735092,1
357,7736368,1
329,7737644,1
292,7738920,1
274,7740192,1
209,7741468,1
234,7742744,1
300,7744020,1
280,7745292,1
350,7746576,1
384,7747844,1
362,7749120,1
307,7750392,1
360,7751668,1
371,7752944,1
341,7754220,1
363,7755492,1
378,7756768,1
347,7758044,1
267,7759320,1
226,7760592,1
208,7761868,1
228,7763144,1
271,7764420,1
341,7765692,1
364,7766968,1
385,7768244,1
370,7769520,1
347,7770792,1
331,7772068,1
358,7773344,1
366,7774620,1
346,7775892,1
337,7777168,1
289,7778444,1
265,7779720,1
293,7780992,1
238,7782268,1
265,7783544,1
295,7784820,1
315,7786092,1
366,7787368,1
394,7788644,1
316,7789920,1
340,7791192,1
376,7792468,1
389,7793744,1
366,7795020,1
355,7796292,1
328,7797568,1
270,7798844,1
236,7800120,1
219,7801392,1
225,7802668,1
252,7803944,1
326,7805220,1
355,7806492,1
362,7807768,1
385,7809044,1
356,7810320,1
378,7811592,1
373,7812868,1
348,7814148,1
343,7815420,1
314,7816692,1
294,7817968,1
261,7819244,1
268,7820520,1
221,7821792,1
242,7823068,1
246,7824344,1
336,7825620,1
402,7826892,1
420,7828168,1
361,7829444,1
407,7830720,1
371,7831992,1
266,7833268,1
305,7834544,1
438,7835820,1
379,7837092,1
264,7838368,1
249,7839644,1
229,7840920,1
216,7842192,1
221,7843468,1
283,7844744,1
349,7846020,1
370,7847292,1
358,7848568,1
364,7849844,1
366,7851120,1
373,7852392,1
366,7853668,1
326,7854944,1
328,7856220,1
340,7857492,1
311,7858768,1
284,7860044,1
255,7861320,1
248,7862592,1
255,7863868,1
297,7865144,1
341,7866420,1
383,7867692,1
370,7868968,1
318,7870244,1
335,7871520,1
393,7872792,1
343,7874068,1
353,7875344,1
348,7876624,1
320,7877892,1
267,7879168,1
268,7880444,1
226,7881720,1
228,7882992,1
280,7884268,1
337,7885544,1
349,7886820,1
328,7888092,1
351,7889368,1
405,7890644,1
391,7891920,1
352,7893192,1
343,7894468,1
351,7895744,1
329,7897020,1
312,7898292,1
279,7899568,1
249,7900844,1
207,7902120,1
242,7903392,1
271,7904668,1
366,7905944,1
381,7907220,1
352,7908492,1
349,7909768,1
418,7911044,1
422,7912320,1
301,7913592,1
271,7914868,1
324,7916144,1
305,7917420,1
289,7918692,1
302,7919968,1
258,7921244,1
287,7922520,1
276,7923792,1
302,7925068,1
316,7926344,1
328,7927620,1
369,7928892,1
372,7930168,1
371,7931444,1
360,7932720,1
387,7933992,1
369,7935268,1
322,7936544,1
288,7937820,1
267,7939092,1
226,7940368,1
211,7941644,1
257,7942920,1
288,7944200,1
321,7945468,1
346,7946744,1
378,7948020,1
382,7949292,1
353,7950568,1
352,7951844,1
345,7953120,1
345,7954392,1
368,7955668,1
349,7956944,1
302,7958220,1
258,7959492,1
262,7960768,1
232,7962044,1
242,7963320,1
281,7964592,1
334,7965868,1
360,7967144,1
388,7968420,1
365,7969692,1
362,7970968,1
375,7972244,1
366,7973520,1
329,7974792,1
320,7976068,1
305,7977344,1
306,7978620,1
277,7979892,1
273,7981168,1
233,7982444,1
253,7983720,1
282,7984992,1
351,7986268,1
358,7987544,1
370,7988820,1
345,7990092,1
358,7991368,1
359,7992644,1
344,7993920,1
367,7995192,1
361,7996468,1
324,7997744,1
275,7999020,1
265,8000292,1
231,8001568,1
236,8002844,1
274,8004120,1
324,8005392,1
349,8006672,1
368,8007944,1
370,8009220,1
359,8010492,1
359,8011768,1
346,8013044,1
334,8014320,1
371,8015592,1
352,8016868,1
304,8018144,1
263,8019420,1
260,8020692,1
223,8021968,1
234,8023244,1
278,8024520,1
335,8025792,1
363,8027068,1
381,8028344,1
373,8029620,1
370,8030892,1
371,8032168,1
347,8033444,1
344,8034720,1
355,8035992,1
329,8037268,1
286,8038544,1
261,8039820,1
245,8041092,1
226,8042368,1
244,8043644,1
289,8044920,1
352,8046192,1
367,8047468,1
376,8048744,1
367,8050020,1
362,8051292,1
360,8052568,1
350,8053844,1
375,8055120,1
358,8056392,1
323,8057668,1
268,8058944,1
258,8060220,1
222,8061492,1
210,8062768,1
251,8064044,1
310,8065320,1
363,8066592,1
377,8067868,1
394,8069144,1
383,8070420,1
391,8071692,1
353,8072968,1
331,8074248,1
366,8075520,1
367,8076792,1
309,8078068,1
261,8079344,1
246,8080620,1
192,8081892,1
204,8083168,1
249,8084444,1
326,8085720,1
371,8086992,1
397,8088268,1
387,8089544,1
382,8090820,1
396,8092092,1
364,8093368,1
345,8094644,1
359,8095920,1
333,8097192,1
285,8098468,1
254,8099744,1
240,8101020,1
201,8102292,1
229,8103568,1
277,8104844,1
336,8106120,1
366,8107392,1
389,8108668,1
384,8109944,1
378,8111220,1
377,8112492,1
355,8113768,1
372,8115044,1
361,8116320,1
324,8117592,1
268,8118868,1
250,8120144,1
221,8121420,1
209,8122692,1
244,8123968,1
302,8125244,1
348,8126520,1
365,8127792,1
391,8129068,1
381,8130344,1
380,8131620,1
356,8132892,1
340,8134168,1
376,8135444,1
359,8136720,0
296,8137992,0
262,8139268,0
258,8140544,0
205,8141820,0
213,8143092,0
264,8144368,0
321,8145644,0
353,8146920,0
375,8148192,0
376,8149468,0
377,8150744,0
388,8152020,0
377,8153292,0
364,8154568,0
370,8155844,0
341,8157120,0
293,8158392,0
254,8159668,0
229,8160944,0
193,8162220,0
237,8163492,0
288,8164768,0
340,8166044,0
354,8167320,0
374,8168592,0
370,8169868,0
373,8171144,0
384,8172420,0
374,8173692,0
380,8174968,0
371,8176244,0
326,8177520,0
267,8178792,0
249,8180068,0
229,8181344,0
208,8182620,0
236,8183892,0
290,8185168,0
338,8186444,0
367,8187720,0
386,8188992,0
375,8190268,0
383,8191544,0
372,8192820,0
347,8194092,0
368,8195368,0
359,8196644,0
317,8197920,0
257,8199192,0
251,8200468,0
208,8201744,0
213,8203020,0
256,8204300,0
317,8205568,0
348,8206844,0
371,8208120,0
384,8209392,0
374,8210668,0
386,8211944,0
367,8213220,0
356,8214492,0
372,8215768,0
341,8217044,0
272,8218320,0
222,8219592,0
247,8220868,0
205,8222144,0
237,8223420,0
280,8224692,0
333,8225968,0
353,8227244,0
380,8228520,0
384,8229792,0
386,8231068,0
380,8232344,0
359,8233620,0
366,8234892,0
370,8236168,0
327,8237444,0
269,8238720,0
243,8239992,0
227,8241268,0
198,8242544,0
240,8243820,0
292,8245092,0
357,8246368,0
363,8247644,0
382,8248920,0
374,8250192,0
377,8251468,0
374,8252744,0
358,8254020,0
362,8255292,0
360,8256568,0
315,8257844,0
268,8259120,0
255,8260392,0
205,8261668,0
195,8262944,0
234,8264220,0
315,8265492,0
362,8266768,0
374,8268044,0
403,8269320,0
375,8270592,0
410,8271868,0
379,8273144,0
346,8274420,0
315,8275692,0
330,8276968,0
293,8278244,0
234,8279520,0
240,8280792,0
215,8282068,0
241,8283344,0
280,8284620,0
333,8285892,0
367,8287168,0
394,8288444,0
402,8289720,0
392,8290992,0
342,8292268,0
295,8293544,0
360,8294820,0
449,8296092,0
365,8297368,0
228,8298644,0
210,8299920,0
212,8301192,0
209,8302468,0
265,8303744,0
286,8305020,0
303,8306292,0
364,8307568,0
488,8308844,0
424,8310120,0
336,8311392,0
348,8312668,0
309,8313944,0
331,8315220,1
348,8316492,1
323,8317768,1
280,8319044,1
273,8320320,1
226,8321592,1
248,8322868,1
280,8324144,1
334,8325420,1
353,8326692,1
329,8327968,1
350,8329244,1
365,8330520,1
388,8331792,1
332,8333068,1
379,8334348,1
383,8335620,1
319,8336892,1
244,8338168,1
265,8339444,1
280,8340720,1
242,8341992,1
248,8343268,1
296,8344544,1
345,8345820,1
350,8347092,1
338,8348368,1
352,8349644,1
375,8350920,1
405,8352192,1
400,8353468,1
369,8354744,1
284,8356020,1
300,8357292,1
273,8358568,1
249,8359844,1
264,8361120,1
242,8362392,1
212,8363668,1
277,8364944,1
350,8366220,1
416,8367492,1
449,8368768,1
383,8370044,1
328,8371320,1
323,8372592,1
327,8373868,1
335,8375144,1
344,8376420,1
343,8377692,1
261,8378968,1
267,8380244,1
234,8381520,1
197,8382792,1
251,8384068,1
362,8385344,1
375,8386620,1
395,8387892,1
338,8389168,1
313,8390444,1
389,8391720,1
429,8392992,1
456,8394268,1
346,8395544,1
259,8396820,1
212,8398092,1
251,8399368,1
271,8400644,1
243,8401920,1
245,8403192,1
291,8404468,1
291,8405744,1
343,8407020,1
338,8408292,1
391,8409568,1
393,8410844,1
360,8412120,1
342,8413392,1
348,8414668,1
345,8415944,1
338,8417220,1
297,8418492,1
275,8419768,1
253,8421044,1
222,8422320,1
248,8423592,1
283,8424868,1
336,8426144,1
348,8427420,1
373,8428692,1
465,8429968,1
425,8431244,1
326,8432520,1
266,8433792,1
356,8435068,1
397,8436344,1
326,8437620,1
204,8438892,1
201,8440168,1
169,8441444,1
240,8442720,1
323,8443992,1
437,8445268,1
485,8446544,1
392,8447820,1
281,8449092,1
251,8450368,1
345,8451644,1
367,8452920,1
340,8454192,1
353,8455468,1
346,8456744,1
334,8458020,1
298,8459292,1
260,8460568,1
189,8461844,1
220,8463120,1
269,8464400,1
344,8465668,1
379,8466944,1
373,8468220,1
379,8469492,1
366,8470768,1
351,8472044,1
344,8473320,1
333,8474592,1
339,8475868,1
333,8477144,1
300,8478420,1
274,8479692,1
262,8480968,1
234,8482244,1
264,8483520,1
293,8484792,1
344,8486068,1
359,8487344,1
375,8488620,1
363,8489892,1
368,8491168,1
356,8492444,1
336,8493720,1
358,8494992,1
359,8496268,1
328,8497544,1
279,8498820,1
268,8500092,1
231,8501368,1
220,8502644,1
256,8503920,1
304,8505192,1
353,8506468,1
365,8507744,1
378,8509020,1
365,8510292,1
366,8511568,1
357,8512844,1
350,8514120,1
371,8515392,1
346,8516668,1
302,8517944,1
264,8519220,1
266,8520492,1
221,8521768,1
233,8523044,1
272,8524320,1
335,8525592,1
358,8526868,1
376,8528144,1
359,8529420,1
361,8530692,1
377,8531976,1
356,8533244,1
345,8534520,1
350,8535792,1
329,8537068,1
289,8538344,1
261,8539620,1
249,8540892,1
217,8542168,1
253,8543444,1
295,8544720,1
343,8545992,1
363,8547268,1
383,8548544,1
374,8549820,1
367,8551092,1
354,8552368,1
342,8553644,1
367,8554920,1
367,8556192,1
330,8557468,1
272,8558744,1
243,8560020,1
204,8561292,1
225,8562568,1
276,8563844,1
339,8565120,1
363,8566392,1
357,8567668,1
371,8568944,1
346,8570220,1
377,8571492,1
376,8572768,1
360,8574044,1
382,8575320,1
359,8576592,1
312,8577868,1
260,8579144,1
247,8580420,1
204,8581692,1
210,8582968,1
258,8584244,1
315,8585520,1
351,8586792,1
383,8588068,1
391,8589344,1
381,8590620,1
387,8591892,1
365,8593168,1
349,8594448,1
373,8595720,1
346,8596992,1
296,8598268,1
256,8599544,1
252,8600820,1
208,8602092,1
229,8603368,1
278,8604644,1
341,8605920,1
369,8607192,1
385,8608468,1
383,8609744,1
381,8611020,1
381,8612292,1
364,8613568,1
372,8614844,1
367,8616120,1
325,8617392,1
264,8618668,1
249,8619944,1
225,8621220,1
205,8622492,1
244,8623768,1
298,8625044,1
350,8626320,1
370,8627592,1
366,8628868,1
363,8630144,1
369,8631420,1
363,8632692,1
340,8633968,1
363,8635244,1
354,8636520,1
312,8637792,1
272,8639068,1
262,8640344,1
218,8641620,1
228,8642892,1
267,8644168,1
320,8645444,1
351,8646720,1
370,8647992,1
382,8649268,0
376,8650544,0
371,8651820,0
345,8653092,0
324,8654368,0
341,8655644,0
333,8656920,0
293,8658192,0
265,8659468,0
303,8660744,0
231,8662024,0
232,8663292,0
270,8664568,0
352,8665844,0
375,8667120,0
360,8668392,0
356,8669668,0
363,8670944,0
370,8672220,0
354,8673492,0
370,8674768,0
384,8676044,0
338,8677320,0
278,8678592,0
251,8679868,0
234,8681144,0
210,8682420,0
237,8683692,0
286,8684968,0
343,8686244,0
361,8687520,0
379,8688792,0
382,8690068,0
382,8691344,0
366,8692620,0
351,8693892,0
368,8695168,0
361,8696444,0
316,8697720,0
259,8698992,0
245,8700268,0
205,8701544,0
210,8702820,0
256,8704092,0
313,8705368,0
343,8706644,0
367,8707920,0
379,8709192,0
377,8710468,0
388,8711744,0
373,8713020,0
353,8714292,0
371,8715568,0
362,8716844,0
302,8718120,0
249,8719392,0
228,8720668,0
183,8721944,0
209,8723220,0
263,8724496,0
331,8725768,0
360,8727044,0
400,8728320,0
394,8729592,0
375,8730868,0
370,8732144,0
349,8733420,0
357,8734692,0
362,8735968,0
334,8737244,0
278,8738520,0
252,8739792,0
227,8741068,0
199,8742344,0
229,8743620,0
297,8744892,0
358,8746168,0
387,8747444,0
393,8748720,0
367,8749992,0
360,8751268,0
361,8752544,0
348,8753820,0
361,8755092,0
353,8756368,0
318,8757644,0
265,8758920,0
256,8760192,0
220,8761468,0
225,8762744,0
254,8764020,0
308,8765292,0
344,8766568,0
368,8767844,0
380,8769120,0
370,8770392,0
370,8771668,0
359,8772944,0
343,8774220,0
383,8775492,0
360,8776768,0
305,8778044,0
256,8779320,0
246,8780592,0
208,8781868,0
223,8783144,0
277,8784420,0
338,8785692,0
357,8786968,0
377,8788244,0
377,8789520,0
369,8790792,0
367,8792076,0
354,8793344,0
367,8794620,0
370,8795892,0
322,8797168,0
267,8798444,0
239,8799720,0
243,8800992,0
212,8802268,0
245,8803544,0
299,8804820,0
353,8806092,0
370,8807368,0
378,8808644,0
374,8809920,0
375,8811192,0
368,8812468,0
344,8813744,0
357,8815020,0
357,8816292,0
319,8817568,0
265,8818844,0
253,8820120,0
229,8821392,0
227,8822668,0
262,8823944,0
292,8825220,0
337,8826492,0
376,8827768,0
386,8829044,0
375,8830320,0
380,8831592,0
364,8832868,0
339,8834144,0
389,8835420,0
365,8836692,0
301,8837968,0
232,8839244,0
249,8840520,0
216,8841792,0
224,8843068,0
268,8844344,0
327,8845620,0
348,8846892,0
389,8848168,0
380,8849444,0
366,8850720,0
375,8851992,0
356,8853268,0
358,8854544,0
363,8855820,0
331,8857092,0
287,8858368,0
257,8859644,0
250,8860920,0
216,8862192,0
241,8863468,0
285,8864744,0
342,8866020,0
365,8867292,0
383,8868568,0
370,8869844,0
374,8871120,0
373,8872392,0
348,8873668,0
362,8874944,0
357,8876220,0
321,8877492,0
272,8878768,0
255,8880044,0
223,8881320,0
214,8882592,0
253,8883868,0
307,8885144,0
350,8886420,0
366,8887692,0
379,8888968,0
371,8890244,0
382,8891520,0
366,8892792,0
340,8894068,0
363,8895344,0
357,8896620,0
308,8897892,0
263,8899168,0
253,8900444,0
205,8901720,0
218,8902992,0
264,8904268,0
320,8905544,0
355,8906820,0
376,8908092,0
380,8909368,0
385,8910644,0
384,8911920,0
357,8913192,0
350,8914468,0
369,8915744,0
350,8917020,0
283,8918292,0
251,8919568,0
240,8920844,0
203,8922124,0
227,8923392,0
271,8924668,0
339,8925944,0
361,8927220,0
387,8928492,0
386,8929768,0
381,8931044,0
374,8932320,0
356,8933592,0
371,8934868,0
354,8936144,0
326,8937420,0
277,8938692,0
254,8939968,0
222,8941244,0
203,8942520,0
247,8943792,0
295,8945068,0
339,8946344,0
356,8947620,0
382,8948892,0
376,8950168,0
386,8951444,0
378,8952720,0
354,8953992,0
375,8955268,0
357,8956544,0
307,8957820,0
255,8959092,0
248,8960368,0
205,8961644,0
209,8962920,0
255,8964192,0
318,8965468,0
354,8966744,0
379,8968020,0
385,8969292,0
372,8970568,0
377,8971844,0
370,8973120,0
358,8974392,0
366,8975668,0
343,8976944,0
294,8978220,0
260,8979492,0
249,8980768,0
183,8982044,0
223,8983320,0
258,8984592,0
333,8985868,0
376,8987144,0
392,8988420,0
364,8989692,0
387,8990968,0
387,8992244,0
364,8993520,0
385,8994792,0
389,8996068,0
308,8997344,0
247,8998620,0
234,8999892,0
231,9001168,0
207,9002444,0
242,9003720,0
282,9004992,0
332,9006268,0
377,9007544,0
387,9008820,0
395,9010092,0
403,9011368,0
377,9012644,0
322,9013920,0
377,9015192,0
370,9016468,0
313,9017744,0
270,9019020,0
254,9020292,0
204,9021568,0
206,9022844,0
233,9024120,0
300,9025392,0
309,9026668,0
380,9027944,0
422,9029220,0
385,9030492,0
369,9031768,0
392,9033044,0
384,9034320,0
322,9035592,0
284,9036868,0
302,9038144,1
306,9039420,1
264,9040692,1
203,9041968,1
274,9043244,1
240,9044520,1
308,9045792,1
358,9047068,1
399,9048344,1
383,9049620,1
366,9050892,1
350,9052176,1
337,9053444,1
340,9054720,1
330,9055992,1
308,9057268,1
297,9058544,1
280,9059820,1
281,9061092,1
246,9062368,1
288,9063644,1
256,9064920,1
282,9066192,1
381,9067468,1
488,9068744,1
405,9070020,1
289,9071292,1
230,9072568,1
300,9073844,1
386,9075120,1
418,9076392,1
338,9077668,1
288,9078944,1
263,9080220,1
226,9081492,1
216,9082768,1
275,9084044,1
325,9085320,1
384,9086592,1
367,9087868,1
349,9089144,1
344,9090420,1
368,9091692,1
368,9092968,1
335,9094244,1
349,9095520,1
369,9096792,1
302,9098068,1
241,9099344,1
265,9100620,1
249,9101892,1
262,9103168,1
264,9104444,1
324,9105720,1
336,9106992,1
364,9108268,1
376,9109544,1
368,9110820,1
363,9112092,1
340,9113368,1
360,9114644,1
323,9115920,1
279,9117192,1
310,9118468,1
345,9119748,1
278,9121020,1
201,9122292,1
229,9123568,1
309,9124844,1
330,9126120,1
340,9127392,1
372,9128668,1
397,9129944,1
384,9131220,1
365,9132492,1
347,9133768,1
390,9135044,1
347,9136320,1
284,9137592,1
229,9138868,1
267,9140144,1
248,9141420,1
241,9142692,1
193,9143968,1
300,9145244,1
408,9146520,1
447,9147792,1
358,9149068,1
340,9150344,1
356,9151620,1
305,9152892,1
345,9154168,1
335,9155444,1
356,9156720,1
325,9157992,1
337,9159268,1
295,9160544,1
191,9161820,1
189,9163092,1
260,9164368,1
333,9165644,1
356,9166920,1
371,9168192,1
364,9169468,1
368,9170744,1
382,9172020,1
352,9173292,1
356,9174568,1
368,9175844,1
326,9177120,1
292,9178392,1
259,9179668,1
253,9180944,1
221,9182224,1
251,9183492,1
289,9184768,1
339,9186044,1
360,9187320,1
377,9188592,1
369,9189868,1
369,9191144,1
368,9192420,1
352,9193692,1
367,9194968,1
357,9196244,1
315,9197520,1
264,9198792,1
256,9200068,1
227,9201344,1
216,9202620,1
261,9203892,1
313,9205168,1
349,9206444,1
369,9207720,1
381,9208992,1
374,9210268,1
383,9211544,1
367,9212820,1
337,9214092,1
359,9215368,1
346,9216644,1
303,9217920,1
252,9219192,1
252,9220468,1
211,9221744,1
227,9223020,1
279,9224292,1
344,9225568,1
370,9226844,1
381,9228120,1
374,9229392,1
360,9230668,1
361,9231944,1
356,9233220,1
358,9234492,1
364,9235768,1
331,9237044,1
278,9238320,1
257,9239592,1
247,9240868,1
212,9242144,1
238,9243420,1
280,9244692,1
347,9245968,1
363,9247244,1
388,9248520,1
388,9249800,1
415,9251068,1
397,9252344,1
355,9253620,1
344,9254892,1
357,9256168,1
327,9257444,1
253,9258720,1
240,9259992,1
206,9261268,1
210,9262544,1
251,9263820,1
303,9265092,1
344,9266368,1
364,9267644,1
383,9268920,1
385,9270192,1
384,9271468,1
374,9272744,1
351,9274020,1
385,9275292,1
374,9276568,1
313,9277844,1
245,9279120,1
228,9280392,1
191,9281668,1
203,9282944,1
256,9284220,1
320,9285492,1
361,9286768,1
394,9288044,1
393,9289320,1
376,9290592,1
385,9291868,1
370,9293144,1
354,9294420,1
370,9295692,1
345,9296968,1
289,9298244,1
246,9299520,1
247,9300792,1
200,9302068,1
217,9303344,1
269,9304620,1
338,9305892,1
364,9307168,1
381,9308444,1
380,9309720,1
382,9310992,1
387,9312272,1
368,9313544,1
373,9314820,1
369,9316092,1
323,9317368,1
266,9318644,1
250,9319920,1
218,9321192,1
201,9322468,1
244,9323744,1
305,9325020,1
340,9326292,1
355,9327568,1
381,9328844,1
385,9330120,1
389,9331392,1
383,9332668,1
353,9333944,1
384,9335220,1
387,9336492,1
318,9337768,1
244,9339044,1
209,9340320,1
190,9341592,1
206,9342868,0
280,9344144,0
321,9345420,0
343,9346692,0
369,9347968,0
400,9349244,0
386,9350520,0
390,9351792,0
374,9353068,0
358,9354344,0
368,9355620,0
336,9356892,0
288,9358168,0
252,9359444,0
253,9360720,0
203,9361992,0
218,9363268,0
265,9364544,0
335,9365820,0
362,9367092,0
379,9368368,0
380,9369644,0
376,9370920,0
372,9372192,0
361,9373468,0
381,9374744,0
387,9376020,0
336,9377292,0
265,9378568,0
243,9379848,0
236,9381120,0
199,9382392,0
235,9383668,0
288,9384944,0
341,9386220,0
364,9387492,0
384,9388768,0
370,9390044,0
371,9391320,0
376,9392592,0
358,9393868,0
383,9395144,0
363,9396420,0
307,9397692,0
243,9398968,0
257,9400244,0
231,9401520,0
218,9402792,0
238,9404068,0
281,9405344,0
365,9406620,0
371,9407892,0
420,9409168,0
369,9410444,0
364,9411720,0
327,9412992,0
343,9414268,0
390,9415544,0
369,9416820,0
301,9418092,0
233,9419368,0
224,9420644,0
199,9421920,0
201,9423192,0
275,9424468,0
381,9425744,0
381,9427020,0
386,9428292,0
361,9429568,0
384,9430844,0
375,9432120,0
344,9433392,0
359,9434668,0
368,9435944,0
329,9437220,0
259,9438492,0
240,9439768,0
227,9441044,0
208,9442320,0
237,9443592,0
334,9444868,0
342,9446144,0
357,9447420,0
360,9448692,0
368,9449968,0
372,9451244,0
367,9452520,0
367,9453792,0
386,9455068,0
363,9456344,0
310,9457620,1
271,9458892,1
250,9460168,1
187,9461444,1
175,9462720,1
280,9463992,1
348,9465268,1
346,9466544,1
359,9467820,1
392,9469092,1
353,9470368,1
333,9471644,1
338,9472920,1
333,9474192,1
393,9475468,1
343,9476744,1
308,9478020,1
309,9479292,1
261,9480568,1
141,9481844,1
302,9483120,1
317,9484392,1
373,9485668,1
252,9486944,1
368,9488220,1
396,9489492,1
383,9490768,1
341,9492044,1
301,9493320,1
344,9494592,1
424,9495868,1
356,9497144,1
267,9498420,1
234,9499692,1
255,9500968,1
224,9502244,1
262,9503520,1
280,9504792,1
323,9506068,1
371,9507344,1
397,9508620,1
423,9509900,1
403,9511168,1
301,9512444,1
352,9513720,1
457,9514992,1
361,9516268,1
215,9517544,1
239,9518820,1
233,9520092,1
189,9521368,1
235,9522644,1
280,9523920,1
351,9525192,1
346,9526468,1
378,9527744,1
379,9529020,1
359,9530292,1
362,9531568,1
380,9532844,1
354,9534120,1
343,9535392,1
354,9536668,1
295,9537944,1
262,9539220,1
269,9540492,1
231,9541768,1
243,9543044,1
281,9544320,1
335,9545592,1
354,9546868,1
363,9548144,1
371,9549420,1
366,9550692,1
376,9551968,1
358,9553244,1
346,9554520,1
344,9555792,1
326,9557068,1
291,9558344,1
262,9559620,1
254,9560892,1
217,9562168,1
251,9563444,1
305,9564720,1
355,9565992,1
366,9567268,1
370,9568544,1
356,9569820,1
362,9571092,1
364,9572368,1
345,9573644,1
360,9574920,1
357,9576192,1
332,9577468,1
275,9578744,1
270,9580020,1
232,9581292,1
207,9582568,1
254,9583844,1
318,9585120,1
351,9586392,1
355,9587668,1
370,9588944,1
376,9590220,1
377,9591492,1
366,9592768,1
353,9594044,1
363,9595320,1
347,9596592,1
303,9597868,1
254,9599144,1
251,9600420,1
207,9601692,1
229,9602968,1
286,9604244,1
340,9605520,1
379,9606792,1
389,9608068,1
377,9609344,1
360,9610620,1
372,9611892,1
366,9613168,1
350,9614444,1
357,9615720,1
323,9616992,1
288,9618268,1
263,9619544,1
240,9620820,1
199,9622092,1
226,9623368,1
274,9624644,1
345,9625920,1
370,9627192,1
389,9628468,1
387,9629744,1
390,9631020,1
381,9632292,1
357,9633568,1
385,9634844,1
387,9636120,1
337,9637392,1
261,9638668,1
226,9639948,1
204,9641220,1
196,9642492,1
238,9643768,1
294,9645044,1
347,9646320,1
370,9647592,1
385,9648868,1
382,9650144,1
410,9651420,1
397,9652692,1
351,9653968,1
347,9655244,1
341,9656520,1
313,9657792,1
258,9659068,1
261,9660344,1
204,9661620,1
194,9662892,1
231,9664168,1
316,9665444,1
353,9666720,1
388,9667992,1
392,9669268,1
383,9670544,1
390,9671820,1
378,9673092,1
366,9674368,1
377,9675644,1
343,9676920,1
291,9678192,1
251,9679468,1
243,9680744,1
198,9682020,1
218,9683292,1
253,9684568,1
323,9685844,1
360,9687120,1
386,9688392,1
389,9689668,1
386,9690944,1
389,9692220,1
361,9693492,1
374,9694768,1
373,9696044,1
325,9697320,1
267,9698592,0
243,9699868,0
211,9701144,0
204,9702420,0
246,9703692,0
308,9704968,0
344,9706244,0
362,9707520,0
371,9708792,0
374,9710068,0
378,9711344,0
382,9712620,0
363,9713892,0
375,9715168,0
373,9716444,0
340,9717720,0
258,9718992,0
233,9720268,0
181,9721544,0
194,9722820,0
236,9724092,0
307,9725368,0
346,9726644,0
394,9727920,0
394,9729192,0
411,9730468,0
415,9731744,0
373,9733020,0
328,9734292,0
370,9735568,0
330,9736844,0
296,9738120,0
248,9739392,0
234,9740668,0
185,9741944,0
222,9743220,0
286,9744492,0
333,9745768,0
338,9747044,0
395,9748320,0
404,9749592,0
428,9750868,0
398,9752144,0
346,9753420,0
309,9754692,0
348,9755968,0
349,9757244,0
292,9758520,0
257,9759792,0
201,9761068,0
188,9762344,0
221,9763620,0
287,9764892,0
375,9766168,0
379,9767444,0
431,9768720,0
366,9770000,0
420,9771268,0
368,9772544,0
323,9773820,0
240,9775092,0
330,9776368,0
365,9777644,0
320,9778920,0
241,9780192,0
197,9781468,0
191,9782744,0
250,9784020,1
280,9785292,1
378,9786568,1
400,9787844,1
429,9789120,1
369,9790392,1
362,9791668,1
344,9792944,1
329,9794220,1
411,9795492,1
391,9796768,1
292,9798044,1
221,9799320,1
182,9800592,1
164,9801868,1
263,9803144,1
329,9804420,1
341,9805692,1
304,9806968,1
331,9808244,1
416,9809520,1
384,9810792,1
373,9812068,1
342,9813344,1
339,9814620,1
351,9815892,1
400,9817168,1
334,9818444,1
240,9819720,1
154,9820992,1
300,9822268,1
314,9823544,1
292,9824820,1
247,9826092,1
297,9827368,1
377,9828644,1
424,9829920,1
393,9831192,1
340,9832468,1
315,9833744,1
359,9835020,1
292,9836292,1
317,9837576,1
296,9838844,1
315,9840120,1
260,9841392,1
319,9842668,1
307,9843944,1
273,9845220,1
267,9846492,1
337,9847768,1
345,9849044,1
381,9850320,1
375,9851592,1
396,9852868,1
374,9854144,1
332,9855420,1
319,9856692,1
309,9857968,1
278,9859244,1
259,9860520,1
224,9861792,1
229,9863068,1
295,9864344,1
351,9865620,1
357,9866892,1
363,9868168,1
339,9869444,1
355,9870720,1
347,9871992,1
393,9873268,1
366,9874544,1
354,9875820,1
326,9877092,1
276,9878368,1
292,9879644,1
316,9880920,1
213,9882192,1
187,9883468,1
294,9884744,1
365,9886020,1
381,9887292,1
356,9888568,1
320,9889844,1
327,9891120,1
362,9892392,1
374,9893668,1
472,9894944,1
417,9896220,1
269,9897492,1
146,9898768,1
284,9900048,1
210,9901320,1
190,9902592,1
287,9903868,1
339,9905144,1
367,9906420,1
375,9907692,1
404,9908968,1
375,9910244,1
317,9911520,1
337,9912792,1
368,9914068,1
385,9915344,1
366,9916620,1
307,9917892,1
258,9919168,1
261,9920444,1
228,9921720,1
234,9922992,1
273,9924268,1
334,9925544,1
358,9926820,1
373,9928092,1
356,9929368,1
350,9930644,1
361,9931920,1
369,9933192,1
361,9934468,1
361,9935744,1
350,9937020,1
264,9938292,1
267,9939568,1
255,9940844,1
232,9942120,1
243,9943392,1
282,9944668,1
333,9945944,1
357,9947220,1
377,9948492,1
381,9949768,1
368,9951044,1
358,9952320,1
310,9953592,1
363,9954868,1
360,9956144,1
337,9957420,1
283,9958692,1
278,9959968,1
230,9961244,1
212,9962520,1
261,9963792,1
319,9965068,1
364,9966344,1
353,9967624,1
356,9968892,1
373,9970168,1
373,9971444,1
366,9972720,1
352,9973992,1
365,9975268,1
349,9976544,1
294,9977820,1
266,9979092,1
264,9980368,1
217,9981644,1
227,9982920,1
275,9984192,1
339,9985468,1
354,9986744,1
368,9988020,1
377,9989292,1
376,9990568,1
371,9991844,1
347,9993120,1
327,9994392,1
357,9995668,1
338,9996944,1
298,9998220,1
267,9999492,1
257,10000768,1
227,10002128,1
247,10003488,1
297,10004848,1
347,10006208,1
365,10007568,1
365,10008928,1
366,10010288,1
367,10011656,1
350,10013008,1
351,10014368,1
369,10015728,1
329,10017088,1
281,10018448,1
258,10019808,1
239,10021168,1
233,10022528,1
272,10023888,1
328,10025248,1
354,10026608,1
356,10027968,1
364,10029328,1
365,10030688,1
369,10032048,1
353,10033408,1
363,10034768,1
363,10036128,1
331,10037488,1
274,10038848,1
267,10040208,1
209,10041568,1
218,10042928,1
260,10044288,1
346,10045648,1
365,10047008,1
383,10048368,1
381,10049728,1
383,10051088,1
382,10052448,1
349,10053808,1
379,10055168,1
375,10056528,1
305,10057888,1
227,10059248,1
218,10060608,1
186,10061968,1
214,10063328,1
282,10064688,1
362,10066048,1
382,10067408,1
396,10068768,1
392,10070128,1
395,10071488,1
385,10072848,1
361,10074208,1
373,10075568,1
335,10076928,1
263,10078288,1
241,10079648,1
238,10081008,1
203,10082368,1
240,10083728,1
302,10085088,1
345,10086448,1
372,10087808,1
380,10089168,1
372,10090528,1
390,10091888,1
378,10093248,1
375,10094608,1
371,10095968,1
327,10097328,1
265,10098696,1
245,10100048,1
207,10101408,1
204,10102768,1
254,10104128,1
323,10105488,1
358,10106848,1
378,10108208,1
376,10109568,1
375,10110928,1
371,10112288,1
353,10113648,1
373,10115008,1
358,10116368,0
306,10117728,0
260,10119088,0
253,10120448,0
210,10121808,0
220,10123168,0
262,10124528,0
322,10125888,0
373,10127248,0
396,10128608,0
377,10129968,0
380,10131328,0
379,10132688,0
346,10134048,0
361,10135408,0
342,10136768,0
298,10138128,0
259,10139488,0
244,10140848,0
209,10142208,0
239,10143568,0
283,10144928,0
349,10146288,0
381,10147648,0
406,10149008,0
365,10150368,0
376,10151728,0
356,10153088,0
353,10154448,0
384,10155808,0
329,10157168,0
263,10158528,0
267,10159888,0
234,10161248,0
202,10162608,0
233,10163968,0
318,10165328,0
356,10166688,0
383,10168048,0
374,10169408,0
371,10170768,0
371,10172128,0
355,10173488,0
367,10174848,0
362,10176208,0
315,10177568,0
262,10178928,0
255,10180288,0
211,10181648,0
227,10183008,0
274,10184368,0
340,10185736,0
363,10187088,0
379,10188448,0
373,10189808,0
373,10191168,0
367,10192528,0
345,10193888,0
368,10195248,0
350,10196608,0
297,10197968,0
257,10199328,0
263,10200688,0
226,10202048,0
241,10203408,0
274,10204768,0
329,10206128,0
362,10207488,0
382,10208848,0
375,10210208,0
378,10211568,0
358,10212928,0
355,10214288,0
366,10215648,0
325,10217008,0
273,10218368,0
254,10219728,0
237,10221088,0
219,10222448,0
257,10223808,0
325,10225168,0
363,10226528,0
384,10227888,0
357,10229248,0
348,10230608,0
357,10231968,0
375,10233328,0
392,10234688,0
385,10236048,0
318,10237408,0
253,10238768,0
249,10240128,0
211,10241488,0
219,10242848,0
269,10244208,0
325,10245568,0
360,10246928,0
373,10248288,0
371,10249648,0
372,10251008,0
371,10252368,0
345,10253728,0
375,10255088,0
351,10256448,0
303,10257808,0
261,10259168,0
258,10260528,0
222,10261888,0
241,10263248,0
286,10264608,0
329,10265968,0
359,10267328,0
379,10268688,0
377,10270048,0
385,10271408,0
358,10272776,0
336,10274128,0
358,10275488,0
340,10276848,0
288,10278208,0
259,10279568,0
246,10280928,0
221,10282288,0
254,10283648,0
310,10285008,0
349,10286368,0
371,10287728,0
377,10289088,0
367,10290448,0
372,10291808,0
354,10293168,0
349,10294528,0
360,10295888,0
328,10297248,0
274,10298608,0
258,10299968,0
229,10301328,0
230,10302688,0
273,10304048,0
324,10305408,0
355,10306768,0
373,10308128,0
368,10309488,0
359,10310848,0
375,10312208,0
363,10313568,0
374,10314928,0
350,10316288,0
309,10317648,0
265,10319008,0
253,10320368,0
211,10321728,0
230,10323088,0
273,10324448,0
340,10325808,0
365,10327168,0
387,10328528,0
368,10329888,0
370,10331248,0
363,10332608,0
349,10333968,0
368,10335328,0
354,10336688,0
299,10338048,0
251,10339408,0
254,10340768,0
220,10342128,0
241,10343488,0
291,10344848,0
337,10346208,0
376,10347568,0
387,10348928,0
371,10350288,0
361,10351648,0
356,10353008,0
353,10354368,0
366,10355728,0
330,10357088,0
278,10358448,0
263,10359816,0
225,10361168,0
207,10362528,0
245,10363888,0
322,10365248,0
360,10366608,0
378,10367968,0
378,10369328,0
369,10370688,0
374,10372048,0
356,10373408,0
368,10374768,0
361,10376128,0
319,10377488,0
265,10378848,0
263,10380208,0
225,10381568,0
218,10382928,0
257,10384288,0
317,10385648,0
355,10387008,0
390,10388368,0
384,10389728,0
383,10391088,0
360,10392448,0
361,10393808,0
397,10395168,0
352,10396528,0
278,10397888,0
239,10399248,0
258,10400608,0
234,10401968,0
246,10403328,0
258,10404688,0
318,10406048,0
365,10407408,0
402,10408768,0
396,10410128,0
392,10411488,0
330,10412848,0
329,10414208,0
348,10415568,0
340,10416928,0
308,10418288,0
276,10419648,0
265,10421008,0
246,10422368,0
283,10423728,0
292,10425088,0
277,10426448,0
339,10427808,0
374,10429168,0
340,10430528,0
408,10431888,0
405,10433248,0
350,10434608,0
315,10435968,0
381,10437328,0
269,10438688,0
254,10440048,0
216,10441408,0
211,10442768,0
271,10444128,0
323,10445488,0
351,10446856,1
418,10448208,1
360,10449568,1
329,10450928,1
337,10452288,1
372,10453648,1
401,10455008,1
337,10456368,1
307,10457728,1
249,10459088,1
289,10460448,1
238,10461808,1
195,10463168,1
294,10464528,1
336,10465888,1
356,10467248,1
374,10468608,1
375,10469968,1
385,10471328,1
374,10472688,1
323,10474048,1
368,10475408,1
350,10476768,1
265,10478128,1
357,10479488,1
318,10480848,1
271,10482208,1
158,10483568,1
296,10484928,1
357,10486288,1
315,10487648,1
304,10489008,1
353,10490368,1
380,10491728,1
363,10493088,1
408,10494448,1
402,10495808,1
306,10497168,1
220,10498528,1
287,10499888,1
271,10501248,1
223,10502608,1
269,10503968,1
339,10505328,1
353,10506688,1
370,10508048,1
358,10509408,1
373,10510768,1
361,10512128,1
352,10513488,1
375,10514848,1
374,10516208,1
326,10517568,1
233,10518928,1
206,10520288,1
212,10521648,1
261,10523008,1
315,10524368,1
356,10525728,1
339,10527088,1
381,10528448,1
372,10529808,1
356,10531168,1
398,10532528,1
367,10533896,1
333,10535248,1
342,10536608,1
315,10537968,1
238,10539328,1
243,10540688,1
227,10542048,1
254,10543408,1
302,10544768,1
362,10546128,1
346,10547488,1
338,10548848,1
314,10550208,1
399,10551568,1
444,10552928,1
393,10554288,1
332,10555648,1
350,10557008,1
271,10558368,1
220,10559728,1
166,10561088,1
220,10562448,1
292,10563808,1
363,10565168,1
354,10566528,1
422,10567888,1
400,10569248,1
293,10570608,1
327,10571968,1
363,10573328,1
376,10574688,1
351,10576048,1
310,10577408,1
236,10578768,1
262,10580128,1
221,10581488,1
231,10582848,1
283,10584208,1
333,10585568,1
375,10586928,1
411,10588288,1
388,10589648,1
356,10591008,1
366,10592368,1
341,10593728,1
368,10595088,1
348,10596448,1
291,10597808,1
256,10599168,1
253,10600528,1
236,10601888,1
263,10603248,1
288,10604608,1
335,10605968,1
354,10607328,1
354,10608688,1
358,10610048,1
420,10611408,1
407,10612768,1
348,10614128,1
339,10615488,1
331,10616848,1
290,10618208,1
262,10619568,1
249,10620936,1
212,10622288,1
232,10623648,1
300,10625008,1
347,10626368,1
391,10627728,1
378,10629088,1
362,10630448,1
373,10631808,1
348,10633168,1
349,10634528,1
366,10635888,1
331,10637248,1
285,10638608,1
274,10639968,1
212,10641328,1
197,10642688,1
266,10644048,1
339,10645408,1
358,10646768,1
379,10648128,1
375,10649488,1
376,10650848,1
379,10652208,1
346,10653568,1
361,10654928,1
349,10656288,1
317,10657648,1
278,10659008,1
278,10660368,1
217,10661728,1
248,10663088,1
268,10664448,1
321,10665808,1
335,10667168,1
380,10668528,1
382,10669888,1
376,10671248,1
357,10672608,1
336,10673968,1
364,10675328,1
348,10676688,1
303,10678048,1
266,10679408,1
243,10680768,1
207,10682128,1
243,10683488,1
312,10684848,1
359,10686208,1
374,10687568,1
372,10688928,1
369,10690288,1
372,10691648,1
359,10693008,1
349,10694368,1
366,10695728,1
334,10697088,1
276,10698448,1
250,10699808,1
233,10701168,1
215,10702528,1
255,10703888,1
329,10705248,1
365,10706608,1
379,10707976,1
369,10709328,1
367,10710688,1
368,10712048,1
355,10713408,1
361,10714768,1
358,10716128,1
319,10717488,1
271,10718848,1
260,10720208,1
212,10721568,1
216,10722928,1
270,10724288,1
343,10725648,1
365,10727008,1
378,10728368,1
376,10729728,1
383,10731088,1
376,10732448,1
354,10733808,1
376,10735168,1
361,10736528,1
294,10737888,1
251,10739248,1
240,10740608,1
203,10741968,1
218,10743328,1
274,10744688,1
342,10746048,1
381,10747408,1
397,10748768,1
386,10750128,1
393,10751488,1
382,10752848,1
365,10754208,1
378,10755568,1
341,10756928,1
292,10758288,1
235,10759648,1
200,10761008,1
193,10762368,1
230,10763728,1
292,10765088,1
348,10766448,1
378,10767808,1
402,10769168,1
385,10770528,1
390,10771888,1
380,10773248,1
367,10774608,1
359,10775968,1
328,10777328,1
287,10778688,1
245,10780048,1
199,10781408,1
211,10782768,1
267,10784128,1
325,10785488,1
336,10786848,1
356,10788208,0
381,10789568,0
384,10790928,0
394,10792288,0
371,10793648,0
398,10795016,0
370,10796368,0
294,10797728,0
240,10799088,0
245,10800448,0
203,10801808,0
209,10803168,0
269,10804528,0
328,10805888,0
355,10807248,0
379,10808608,0
399,10809968,0
402,10811328,0
390,10812688,0
371,10814048,0
384,10815408,0
333,10816768,0
279,10818128,0
243,10819488,0
231,10820848,0
192,10822208,0
228,10823568,0
289,10824928,0
349,10826288,0
371,10827648,0
401,10829008,0
392,10830368,0
387,10831728,0
366,10833088,0
360,10834448,0
370,10835808,0
330,10837168,0
277,10838528,0
241,10839888,0
202,10841248,0
193,10842608,0
245,10843968,0
308,10845328,0
345,10846688,0
386,10848048,0
386,10849408,0
383,10850768,0
400,10852128,0
381,10853488,0
371,10854848,0
355,10856208,0
310,10857568,0
275,10858928,0
242,10860288,0
186,10861648,0
206,10863008,0
269,10864368,0
329,10865728,0
357,10867088,0
368,10868448,0
376,10869808,0
397,10871168,0
397,10872528,0
363,10873888,0
380,10875248,0
348,10876608,0
289,10877968,0
239,10879328,0
241,10880688,0
194,10882056,0
231,10883408,0
280,10884768,0
339,10886128,0
354,10887488,0
382,10888848,0
385,10890208,0
398,10891568,0
380,10892928,0
369,10894288,0
370,10895648,0
335,10897008,0
288,10898368,0
250,10899728,0
212,10901088,0
183,10902448,0
225,10903808,0
309,10905168,0
359,10906528,0
387,10907888,0
389,10909248,0
389,10910608,0
391,10911968,0
372,10913328,0
381,10914688,0
371,10916048,0
316,10917408,0
255,10918768,0
250,10920128,0
196,10921488,0
193,10922848,0
241,10924208,0
